patient_id,time_step,ecg_signal,label
1,0,0.27068248434495756,0
1,1,0.2587597362030805,0
1,2,0.2580115880597756,0
1,3,0.3353308116256486,0
1,4,0.30076225178636684,0
1,5,0.2938652491080295,0
1,6,0.3041656223851881,0
1,7,0.32271645986097847,0
1,8,0.33008788403808387,0
1,9,0.35152540802892424,0
1,10,0.3611517596472151,0
1,11,0.3668396344444983,0
1,12,0.4013961556130844,0
1,13,0.4101038024986373,0
1,14,0.3369143321210903,0
1,15,0.40277248851806696,0
1,16,0.3885104011931049,0
1,17,0.38977741240840574,0
1,18,0.3583339285043562,0
1,19,0.4060714939148649,0
1,20,0.35633584514819155,0
1,21,0.3350541060178793,0
1,22,0.2972383646185299,0
1,23,0.25657089801358113,0
1,24,0.17679286757993457,0
1,25,0.11987543391677223,0
1,26,0.06041833104273697,0
1,27,0.016857605205681345,0
1,28,-0.03932725675990008,0
1,29,-0.054321411062661445,0
1,30,-0.0556086942980025,0
1,31,-0.007871650836891307,0
1,32,0.11222454345774968,0
1,33,0.2456011058192863,0
1,34,0.3562412374436107,0
1,35,0.5394127989256788,0
1,36,0.6818788816310848,0
1,37,0.862388062292176,0
1,38,1.0032604781981571,0
1,39,1.149085873755238,0
1,40,1.1878955279495984,0
1,41,1.1691045988823638,0
1,42,1.122811094962823,0
1,43,1.0743863296513625,0
1,44,0.9961159493978268,0
1,45,0.8760838259317005,0
1,46,0.7524838577721644,0
1,47,0.570374763715194,0
1,48,0.49803459921938553,0
1,49,0.3828769869152934,0
1,50,0.30651914053514034,0
1,51,0.24452522671426277,0
1,52,0.23055086770885397,0
1,53,0.17282300660061636,0
1,54,0.13277296795629315,0
1,55,0.1268674578291602,0
1,56,0.09204610007804678,0
1,57,0.08514332745014605,0
1,58,0.0640533335980618,0
1,59,0.06894712052053796,0
1,60,0.10232371908467304,0
1,61,0.06315472844329426,0
1,62,0.08093933270532415,0
1,63,0.08627818156415035,0
1,64,0.05216294975531735,0
1,65,0.04682121847033484,0
1,66,0.003374057081683625,0
1,67,0.0051524276418500915,0
1,68,0.022683767558113726,0
1,69,-0.04333106582352256,0
1,70,-0.01600680269432682,0
1,71,-0.01457440850729188,0
1,72,-0.05395237616896933,0
1,73,-0.11068142523020458,0
1,74,-0.08420254764285616,0
1,75,-0.10594431983982174,0
1,76,-0.10836897765353169,0
1,77,-0.11620800200887321,0
1,78,-0.1595150858388641,0
1,79,-0.17355708274761977,0
1,80,-0.17219807046980046,0
1,81,-0.20073973950226412,0
1,82,-0.19037604695323654,0
1,83,-0.20731096931590914,0
1,84,-0.16371196892005618,0
1,85,-0.24789182733089088,0
1,86,-0.25369058789944343,0
1,87,-0.23986766610868052,0
1,88,-0.2408122177309872,0
1,89,-0.22205062378786367,0
1,90,-0.24446125745439357,0
1,91,-0.26915245029950197,0
1,92,-0.2880440808489475,0
1,93,-0.28380989624467456,0
1,94,-0.3213342427715306,0
1,95,-0.32237407173093136,0
1,96,-0.3521500660419048,0
1,97,-0.3330481016165622,0
1,98,-0.31469816178314847,0
1,99,-0.34312712976969656,0
1,100,-0.3588917597669297,0
1,101,-0.3545729685214761,0
1,102,-0.3363453840062447,0
1,103,-0.3588700835309435,0
1,104,-0.33915787780760803,0
1,105,-0.38425445538445446,0
1,106,-0.376773007825678,0
1,107,-0.3703038172817662,0
1,108,-0.3866376838448167,0
1,109,-0.3012960901346875,0
1,110,-0.3812883642828637,0
1,111,-0.33972281607675636,0
1,112,-0.3694644272207993,0
1,113,-0.36400915829881064,0
1,114,-0.3447675768913952,0
1,115,-0.3764990982593056,0
1,116,-0.35659674451221923,0
1,117,-0.3417682445944715,0
1,118,-0.350745335581801,0
1,119,-0.344756887333148,0
1,120,-0.3005577511976677,0
1,121,-0.29568869982642715,0
1,122,-0.3176393921831146,0
1,123,-0.30303168636353267,0
1,124,-0.26869088825612886,0
1,125,-0.3135925879687469,0
1,126,-0.26949441229272714,0
1,127,-0.2275270312016639,0
1,128,-0.2180653486988566,0
1,129,-0.2861086892508012,0
1,130,-0.2521176408158689,0
1,131,-0.2226706824994682,0
1,132,-0.2412987400637982,0
1,133,-0.21669695211501666,0
1,134,-0.19421753961758517,0
1,135,-0.15126972502384062,0
1,136,-0.16772966404529627,0
1,137,-0.14972604071996912,0
1,138,-0.1307942530994981,0
1,139,-0.11690313664008273,0
1,140,-0.11371111595785151,0
1,141,-0.12450315078984117,0
1,142,-0.07086275585656321,0
1,143,-0.06394637796311314,0
1,144,-0.08027521683831887,0
1,145,-0.05761336479548316,0
1,146,-0.01172672272751045,0
1,147,-0.0027788355609550293,0
1,148,-0.01462752222407733,0
1,149,0.00910546773858711,0
1,150,0.02639958122472477,0
1,151,0.05639271248267311,0
1,152,0.08381451246352903,0
1,153,0.07491111308285525,0
1,154,0.11170422845008905,0
1,155,0.12044807047822532,0
1,156,0.12167637371780275,0
1,157,0.10317570796634523,0
1,158,0.12585403731817452,0
1,159,0.1754574925698738,0
1,160,0.1404889139370608,0
1,161,0.1909693667224687,0
1,162,0.22229456790726804,0
1,163,0.21881466288423687,0
1,164,0.21698787197845934,0
1,165,0.22508344417550563,0
1,166,0.2710715408634476,0
1,167,0.27663108495727246,0
1,168,0.27363454315511476,0
1,169,0.3124801511298662,0
1,170,0.31975088550851494,0
1,171,0.34959241922858425,0
1,172,0.33594965674029054,0
1,173,0.3317440495934651,0
1,174,0.34222181091870296,0
1,175,0.31606295283167657,0
1,176,0.36707270872462555,0
1,177,0.3726989803828702,0
1,178,0.3550392072265847,0
1,179,0.3894672238286487,0
1,180,0.42490298657314207,0
1,181,0.3911617661886421,0
1,182,0.39418295234880874,0
1,183,0.44260910343456306,0
1,184,0.43968032650728794,0
1,185,0.4936192833459572,0
1,186,0.4096551474542771,0
1,187,0.4513061418929814,0
1,188,0.4400426797608907,0
1,189,0.4261511807953539,0
1,190,0.427171117696329,0
1,191,0.3835671862151515,0
1,192,0.31072660584350675,0
1,193,0.28760728029501603,0
1,194,0.27771022533970263,0
1,195,0.21304975130800968,0
1,196,0.1190000098469415,0
1,197,0.07713746767100585,0
1,198,0.07454982091367596,0
1,199,-0.010635616840347133,0
1,200,-0.012056333715557428,0
1,201,0.023468381000804575,0
1,202,0.10007939083124956,0
1,203,0.18588160747578025,0
1,204,0.342168461821863,0
1,205,0.4520971743807466,0
1,206,0.6704331695339386,0
1,207,0.8351081413679415,0
1,208,0.9832184008531394,0
1,209,1.1014005189459817,0
1,210,1.1817480122208346,0
1,211,1.2144821770407441,0
1,212,1.173950735369,0
1,213,1.1609417702180411,0
1,214,1.098284907232074,0
1,215,0.9540820822042495,0
1,216,0.8437678717661714,0
1,217,0.6767105194500648,0
1,218,0.5459723449878042,0
1,219,0.44449745480076713,0
1,220,0.3444316280472037,0
1,221,0.2663517906558303,0
1,222,0.24307169004137652,0
1,223,0.23040034230427517,0
1,224,0.15563282338047077,0
1,225,0.11908547802233502,0
1,226,0.15638544854176434,0
1,227,0.10833036132616639,0
1,228,0.10842817923301538,0
1,229,0.136763681285234,0
1,230,0.11715894415450724,0
1,231,0.09875555430018768,0
1,232,0.10428197691738159,0
1,233,0.08368579783156616,0
1,234,0.11743063149447683,0
1,235,0.052984752046128444,0
1,236,0.034456286822334835,0
1,237,0.029432679284870866,0
1,238,0.015844287625852757,0
1,239,0.02146202876406866,0
1,240,-0.04485976558464719,0
1,241,-0.011053209819778236,0
1,242,-0.04486811346046713,0
1,243,-0.032867715704288085,0
1,244,-0.06358785450323481,0
1,245,-0.0663404859620485,0
1,246,-0.09845168521376992,0
1,247,-0.0955843686706421,0
1,248,-0.08458478664066041,0
1,249,-0.14593687585553633,0
1,250,-0.14634713326429227,0
1,251,-0.1667205174053721,0
1,252,-0.13765423472045418,0
1,253,-0.19041841565095718,0
1,254,-0.20831075414809982,0
1,255,-0.21681538530716493,0
1,256,-0.21921717038629493,0
1,257,-0.24327082494894015,0
1,258,-0.24529792265354405,0
1,259,-0.2449292552315478,0
1,260,-0.26012970037881455,0
1,261,-0.25052251329807185,0
1,262,-0.28245725536309757,0
1,263,-0.28864105078076263,0
1,264,-0.28715982631014125,0
1,265,-0.25526032902563484,0
1,266,-0.32301686814488056,0
1,267,-0.2754242269828291,0
1,268,-0.34371477864438454,0
1,269,-0.32111708240379777,0
1,270,-0.33763650301072634,0
1,271,-0.35179881077625363,0
1,272,-0.3256423996035307,0
1,273,-0.33123802284560955,0
1,274,-0.35594880094535497,0
1,275,-0.39075981189563036,0
1,276,-0.3593139420907111,0
1,277,-0.34962442034590563,0
1,278,-0.3533323983527291,0
1,279,-0.3386737311916275,0
1,280,-0.3150086206832531,0
1,281,-0.34475268751042343,0
1,282,-0.3404903385964434,0
1,283,-0.347164270175795,0
1,284,-0.3244306593252973,0
1,285,-0.33447543458409396,0
1,286,-0.32682200875373807,0
1,287,-0.301807053016638,0
1,288,-0.3291154105296111,0
1,289,-0.3342362484965432,0
1,290,-0.3145529746897013,0
1,291,-0.2949230598972682,0
1,292,-0.30130410866684865,0
1,293,-0.28332907068335916,0
1,294,-0.3106645151082345,0
1,295,-0.3069340102985555,0
1,296,-0.2923152916302007,0
1,297,-0.2981706882129618,0
1,298,-0.2616038179811774,0
1,299,-0.2629879002144746,0
1,300,-0.2199646738080425,0
1,301,-0.2601924727933005,0
1,302,-0.1927003662291557,0
1,303,-0.23250008662271135,0
1,304,-0.22637954262276433,0
1,305,-0.20652400551138117,0
1,306,-0.13911470175593754,0
1,307,-0.16676108484475627,0
1,308,-0.14291638463694784,0
1,309,-0.14447253069412327,0
1,310,-0.12964736277868327,0
1,311,-0.12479390999174868,0
1,312,-0.10028960706906943,0
1,313,-0.07785683565354656,0
1,314,-0.04046200426320213,0
1,315,-0.09765069731286383,0
1,316,-0.013951235081220474,0
1,317,-0.021507236940971425,0
1,318,-0.025232503387653957,0
1,319,-0.014574155055258673,0
1,320,0.031560021687512305,0
1,321,0.029601104247306446,0
1,322,0.00868424339598338,0
1,323,0.06096008010795154,0
1,324,0.09088854575416594,0
1,325,0.09941031403218008,0
1,326,0.08389750842008054,0
1,327,0.08368625725954949,0
1,328,0.11798924387046723,0
1,329,0.20344189798798032,0
1,330,0.12116768301872725,0
1,331,0.14875139548766225,0
1,332,0.18679955537500884,0
1,333,0.18961648358401628,0
1,334,0.20102855385082327,0
1,335,0.2582121689641651,0
1,336,0.21307944782082494,0
1,337,0.242010448847532,0
1,338,0.2581932244847425,0
1,339,0.24961044288689493,0
1,340,0.2481172078555804,0
1,341,0.29320125652775864,0
1,342,0.3346214917808732,0
1,343,0.3166093637793492,0
1,344,0.32011725914014577,0
1,345,0.32939418529974207,0
1,346,0.33162438223790214,0
1,347,0.36915695232633877,0
1,348,0.3437356044503914,0
1,349,0.3347575248842751,0
1,350,0.33803228311624206,0
1,351,0.3787635809379382,0
1,352,0.4056535851615914,0
1,353,0.39611352171477765,0
1,354,0.3914293625215721,0
1,355,0.41250387844343345,0
1,356,0.41119439548307113,0
1,357,0.4258590500551821,0
1,358,0.43430809632304257,0
1,359,0.38227390558639485,0
1,360,0.3416665026593785,0
1,361,0.36040331398118286,0
1,362,0.3165443946582393,0
1,363,0.31287642408534155,0
1,364,0.23121024190016654,0
1,365,0.1495874364262424,0
1,366,0.11249184446947764,0
1,367,0.03179548190233579,0
1,368,0.038782015226177066,0
1,369,-0.022639933625059117,0
1,370,-0.034511041405348164,0
1,371,-0.02139611184356871,0
1,372,0.03564744738748815,0
1,373,0.12968674914898043,0
1,374,0.21918791668853702,0
1,375,0.3526535421463962,0
1,376,0.53276780561577,0
1,377,0.7217085959324736,0
1,378,0.8338873377158228,0
1,379,1.0461805924615737,0
1,380,1.0873929089809513,0
1,381,1.1952012947500297,0
1,382,1.1903580979589525,0
1,383,1.1641289855421855,0
1,384,1.073873892596421,0
1,385,0.9819978317486712,0
1,386,0.8431459947744013,0
1,387,0.7084356833270015,0
1,388,0.5710349028869103,0
1,389,0.499665761051519,0
1,390,0.3730350103037055,0
1,391,0.2856489290712074,0
1,392,0.19924681153987328,0
1,393,0.16525634563236255,0
1,394,0.11837698248581183,0
1,395,0.10791160103795432,0
1,396,0.08105341009215944,0
1,397,0.12923607917097268,0
1,398,0.07670366459492603,0
1,399,0.0690636598400456,0
1,400,0.05394630261793139,0
1,401,0.057491831919141305,0
2,0,0.24690117695138183,0
2,1,0.2375933032798887,0
2,2,0.24884472126045587,0
2,3,0.3019891684231565,0
2,4,0.2949296132212696,0
2,5,0.31908929220630755,0
2,6,0.3301954432628581,0
2,7,0.32586987944671153,0
2,8,0.30629273425558257,0
2,9,0.3426734833883602,0
2,10,0.37476829992884014,0
2,11,0.34572750018836246,0
2,12,0.369438958029658,0
2,13,0.37034747229259746,0
2,14,0.40601068819788205,0
2,15,0.37263210971795163,0
2,16,0.4160813936182871,0
2,17,0.390746826690327,0
2,18,0.38687289492060356,0
2,19,0.40121374403828713,0
2,20,0.39801153335584927,0
2,21,0.41332343468204374,0
2,22,0.35507141177519597,0
2,23,0.3139403160267478,0
2,24,0.29000315851653535,0
2,25,0.20459525933663258,0
2,26,0.10200583539012578,0
2,27,0.0552215910661463,0
2,28,-0.07769352195476065,0
2,29,-0.1645617263047986,0
2,30,-0.24716724873313656,0
2,31,-0.30931231539533016,0
2,32,-0.3184099977362801,0
2,33,-0.3326633895972957,0
2,34,-0.3637727527687396,0
2,35,-0.23006236422244927,0
2,36,-0.1323519752941852,0
2,37,0.02535493163351174,0
2,38,0.14334267899084435,0
2,39,0.3591821526861237,0
2,40,0.48534873316621396,0
2,41,0.5831948416753939,0
2,42,0.723420118877842,0
2,43,0.7903119314557157,0
2,44,0.8311209604292309,0
2,45,0.8569323524768399,0
2,46,0.8274611433883369,0
2,47,0.7930886810428355,0
2,48,0.7495376910703919,0
2,49,0.7085507717731006,0
2,50,0.602858625435867,0
2,51,0.5202020622661809,0
2,52,0.42509275241598954,0
2,53,0.4486676358489707,0
2,54,0.3563951794888356,0
2,55,0.3330459427334383,0
2,56,0.3288821109247867,0
2,57,0.2702550026091546,0
2,58,0.24189132421205795,0
2,59,0.2580442617648275,0
2,60,0.22531503377188628,0
2,61,0.21588038965005585,0
2,62,0.16262901726108606,0
2,63,0.20651157229605788,0
2,64,0.17924973487398907,0
2,65,0.13351187272646212,0
2,66,0.1596275336493617,0
2,67,0.0974110169585235,0
2,68,0.17400364085234027,0
2,69,0.0934259351225925,0
2,70,0.13582887416731054,0
2,71,0.07532880678487812,0
2,72,0.09068234377785278,0
2,73,0.049045932558260924,0
2,74,0.07498403307336023,0
2,75,0.03804984621903358,0
2,76,0.039804024215897356,0
2,77,0.01843460530378514,0
2,78,-0.0214884257081927,0
2,79,0.0036186421731420598,0
2,80,-0.02878345690622519,0
2,81,-0.010021646854809826,0
2,82,-0.04779554758663336,0
2,83,-0.05669270193272648,0
2,84,-0.033494051272783085,0
2,85,-0.03141863933115771,0
2,86,-0.07512078270023793,0
2,87,-0.10825340803125148,0
2,88,-0.12153992403837664,0
2,89,-0.14181130116375446,0
2,90,-0.14917673551183902,0
2,91,-0.1532098577383859,0
2,92,-0.11933828181798033,0
2,93,-0.17326213083016123,0
2,94,-0.20433067801211016,0
2,95,-0.18925489053805297,0
2,96,-0.19658017389132332,0
2,97,-0.20925008825459165,0
2,98,-0.20354431593556555,0
2,99,-0.22747869015713745,0
2,100,-0.22254051668936883,0
2,101,-0.26230436477671937,0
2,102,-0.21958234333258375,0
2,103,-0.2583549008429194,0
2,104,-0.263307236370859,0
2,105,-0.29460025838751086,0
2,106,-0.2767552166511455,0
2,107,-0.2801278910481751,0
2,108,-0.32317039539478376,0
2,109,-0.33924412894361444,0
2,110,-0.3061310652391141,0
2,111,-0.3273704227387342,0
2,112,-0.31762988156488164,0
2,113,-0.3535194174123925,0
2,114,-0.3634111257309601,0
2,115,-0.33219665710805385,0
2,116,-0.34707826897891547,0
2,117,-0.3856674054410655,0
2,118,-0.31957728769076615,0
2,119,-0.37519002835629656,0
2,120,-0.299776926451834,0
2,121,-0.36553675422985127,0
2,122,-0.3464425991426434,0
2,123,-0.32255496192660976,0
2,124,-0.3265268847973017,0
2,125,-0.3166151008668701,0
2,126,-0.38662182553436963,0
2,127,-0.37830025764831826,0
2,128,-0.3500862007637543,0
2,129,-0.33643573108334973,0
2,130,-0.35168228702491033,0
2,131,-0.3820487966160911,0
2,132,-0.33679464803513526,0
2,133,-0.3476570514173928,0
2,134,-0.34455393095089876,0
2,135,-0.38225979865563403,0
2,136,-0.31664084282004545,0
2,137,-0.3251982573919991,0
2,138,-0.28733729652821294,0
2,139,-0.3195001702192363,0
2,140,-0.30108894415504267,0
2,141,-0.28982690277244844,0
2,142,-0.33508166261720307,0
2,143,-0.24117345829066675,0
2,144,-0.295132759550987,0
2,145,-0.26930237777907273,0
2,146,-0.258733465349442,0
2,147,-0.2798743676968668,0
2,148,-0.21836275297293706,0
2,149,-0.24140525081153827,0
2,150,-0.24212266313456493,0
2,151,-0.22592759792941927,0
2,152,-0.20398207811916177,0
2,153,-0.20935474872267992,0
2,154,-0.18197960743757222,0
2,155,-0.22311698644099803,0
2,156,-0.1939443184962344,0
2,157,-0.2111007713068168,0
2,158,-0.11750958476256848,0
2,159,-0.10669091037112002,0
2,160,-0.12256655352515756,0
2,161,-0.14389776795439307,0
2,162,-0.06422426180341964,0
2,163,-0.1123280808481713,0
2,164,-0.09257525859198729,0
2,165,-0.07305710200400188,0
2,166,-0.05503154224465725,0
2,167,-0.038889571301049614,0
2,168,-0.025692172886666635,0
2,169,-0.02978214034016099,0
2,170,-0.0009769032026304449,0
2,171,-0.005509966117322048,0
2,172,0.022521057772092304,0
2,173,0.03357658799957655,0
2,174,0.051605653861731215,0
2,175,0.061835395459909785,0
2,176,0.052951358730590176,0
2,177,0.08368194003044516,0
2,178,0.10025445544735584,0
2,179,0.07400092556819088,0
2,180,0.10692498195977324,0
2,181,0.13708343288878275,0
2,182,0.17154251363626366,0
2,183,0.16619786955570628,0
2,184,0.19738588265054877,0
2,185,0.16609223221990416,0
2,186,0.1910555880356245,0
2,187,0.21401717277410243,0
2,188,0.16307278150252916,0
2,189,0.2513480921960439,0
2,190,0.19526927268414923,0
2,191,0.2635934883173983,0
2,192,0.26835904542255296,0
2,193,0.21858770952215512,0
2,194,0.2301340836665406,0
2,195,0.31486862931036874,0
2,196,0.3205746533424363,0
2,197,0.2884715385828683,0
2,198,0.29799920426283244,0
2,199,0.3351695800569104,0
2,200,0.3336705211338564,0
2,201,0.3637472674359819,0
2,202,0.3607153459329133,0
2,203,0.3909914001172339,0
2,204,0.38670493468557116,0
2,205,0.38949274938457856,0
2,206,0.37565978250247684,0
2,207,0.38173374236690566,0
2,208,0.3967223830460358,0
2,209,0.442129176143557,0
2,210,0.4047911635526297,0
2,211,0.4257271381347323,0
2,212,0.3830204889234279,0
2,213,0.44823866363413095,0
2,214,0.4854112822833472,0
2,215,0.42487361547261987,0
2,216,0.5066675360760144,0
2,217,0.44106138409296664,0
2,218,0.3727681118187872,0
2,219,0.3937507360652986,0
2,220,0.39373604778097615,0
2,221,0.3597261788385199,0
2,222,0.27309510453384844,0
2,223,0.21621696540121282,0
2,224,0.07698913005159055,0
2,225,-0.0036066519400735336,0
2,226,-0.11439054530590004,0
2,227,-0.17659288673078213,0
2,228,-0.21772299820486393,0
2,229,-0.27398037621896304,0
2,230,-0.2761210636762721,0
2,231,-0.2927406489938727,0
2,232,-0.2356180639595097,0
2,233,-0.12339830400103353,0
2,234,-0.01941677416784139,0
2,235,0.16005993608402203,0
2,236,0.27369832505846126,0
2,237,0.4279831463455257,0
2,238,0.5862318148349246,0
2,239,0.6888055825199594,0
2,240,0.7623866102049316,0
2,241,0.8234590737777767,0
2,242,0.8817996823982327,0
2,243,0.8390465885143712,0
2,244,0.8635940467545169,0
2,245,0.7716916569911584,0
2,246,0.73484537817991,0
2,247,0.6406261636689248,0
2,248,0.5649800704919531,0
2,249,0.5219629890431844,0
2,250,0.47847160976942216,0
2,251,0.4010747663410958,0
2,252,0.3618680363320933,0
2,253,0.34454812840875704,0
2,254,0.31743210067132377,0
2,255,0.27773057450046545,0
2,256,0.2517802350456945,0
2,257,0.24745282946649286,0
2,258,0.2290693513692812,0
2,259,0.22735180834889931,0
2,260,0.18594099999562438,0
2,261,0.2042468342956183,0
2,262,0.1731273547849861,0
2,263,0.19419865641755663,0
2,264,0.15097457862462196,0
2,265,0.1394227830958859,0
2,266,0.14931710880185559,0
2,267,0.12839449919081145,0
2,268,0.16119607635036542,0
2,269,0.07051308509786486,0
2,270,0.09264296750240097,0
2,271,0.1003195467434503,0
2,272,0.05339457164036737,0
2,273,0.033954848004882215,0
2,274,0.02194018978438817,0
2,275,-0.005689615920981474,0
2,276,0.0407500951499568,0
2,277,-0.0056024744279870855,0
2,278,-0.020696368885064313,0
2,279,-0.06689025218079789,0
2,280,-0.06568899997637935,0
2,281,-0.020235043851821954,0
2,282,-0.055917698790935895,0
2,283,-0.05098331868598813,0
2,284,-0.065731254381419,0
2,285,-0.1186333352711367,0
2,286,-0.061973805467825,0
2,287,-0.08337403149458922,0
2,288,-0.14527827365226478,0
2,289,-0.21682606326000373,0
2,290,-0.16386495537969925,0
2,291,-0.16304287262342615,0
2,292,-0.1900287776752254,0
2,293,-0.19375075358551597,0
2,294,-0.21630912815205108,0
2,295,-0.19147833099548894,0
2,296,-0.21856272770374535,0
2,297,-0.21046895086044376,0
2,298,-0.21444890666806682,0
2,299,-0.2914937934594095,0
2,300,-0.27224371258908925,0
2,301,-0.27784268291200614,0
2,302,-0.2221579490317181,0
2,303,-0.2785149583367131,0
2,304,-0.2728321130942958,0
2,305,-0.33395655704847094,0
2,306,-0.30040182924706343,0
2,307,-0.2902809404792648,0
2,308,-0.2988389799850129,0
2,309,-0.30948652461117604,0
2,310,-0.32720977748607155,0
2,311,-0.3313873920934266,0
2,312,-0.3712618008467578,0
2,313,-0.35980899532447164,0
2,314,-0.341201260454745,0
2,315,-0.3637775807031527,0
2,316,-0.3389319198629399,0
2,317,-0.346233315899274,0
2,318,-0.3306888698060629,0
2,319,-0.3409432963853533,0
2,320,-0.3572381991974116,0
2,321,-0.34810040026392114,0
2,322,-0.34383505059811975,0
2,323,-0.37456281066874153,0
2,324,-0.3710773323475932,0
2,325,-0.3661037544406132,0
2,326,-0.3729548445496093,0
2,327,-0.34200898477745517,0
2,328,-0.3733503314952505,0
2,329,-0.33385721622215514,0
2,330,-0.36392278589828475,0
2,331,-0.3444380398656892,0
2,332,-0.3474729156275228,0
2,333,-0.36685207049543606,0
2,334,-0.3438813400047178,0
2,335,-0.33258575361267306,0
2,336,-0.33594813954118513,0
2,337,-0.35655361419909376,0
2,338,-0.29034695692057144,0
2,339,-0.31694216579085743,0
2,340,-0.3285534305828372,0
2,341,-0.2738802628595799,0
2,342,-0.2872398516954916,0
2,343,-0.31655395456729335,0
2,344,-0.3060816753507163,0
2,345,-0.28196698389901204,0
2,346,-0.2635944260886182,0
2,347,-0.24880860739761673,0
2,348,-0.233696332901011,0
2,349,-0.2330640048016604,0
2,350,-0.207805612471946,0
2,351,-0.22282882876197296,0
2,352,-0.23093053810768166,0
2,353,-0.20593679865177567,0
2,354,-0.19715071655404368,0
2,355,-0.23701657951573563,0
2,356,-0.18615139966054714,0
2,357,-0.1579133952448323,0
2,358,-0.16176799862771932,0
2,359,-0.15511828697429197,0
2,360,-0.1127127475502632,0
2,361,-0.13786485090573652,0
2,362,-0.09375452313554967,0
2,363,-0.12296631727099233,0
2,364,-0.02930421340950482,0
2,365,-0.07693704112677534,0
2,366,-0.06710075726234002,0
2,367,-0.02570697897313385,0
2,368,-0.0448085276610692,0
2,369,0.004852071057275514,0
2,370,-0.004585271182850535,0
2,371,-0.0021271077758559876,0
2,372,0.008014630055428625,0
2,373,0.04894361139826103,0
2,374,0.04166887218437793,0
2,375,0.05795022942143184,0
2,376,0.07233383499774614,0
2,377,0.07633436349540125,0
2,378,0.09617435743515121,0
2,379,0.09543854039618976,0
2,380,0.10875122030594243,0
2,381,0.09920931804810365,0
2,382,0.13928053501980464,0
2,383,0.11054547440510384,0
2,384,0.1620835567403949,0
2,385,0.16212933313444294,0
2,386,0.18640394034980398,0
2,387,0.1689359121401956,0
2,388,0.15834372946296402,0
2,389,0.2043388110805663,0
2,390,0.2008588268440039,0
2,391,0.19637171881865018,0
2,392,0.2573224035795681,0
2,393,0.2837310344365487,0
2,394,0.24526419046669948,0
2,395,0.26892882797940987,0
2,396,0.27326747417109354,0
2,397,0.2749552321518976,0
2,398,0.3098463124562454,0
2,399,0.3249432128144587,0
2,400,0.29527659565417586,0
2,401,0.32121064379214054,0
2,402,0.35346155766730836,0
2,403,0.3488408902072606,0
2,404,0.35899496905706657,0
2,405,0.37673933121276076,0
2,406,0.3836351781528766,0
2,407,0.38432589522920246,0
2,408,0.3738971616382498,0
2,409,0.3704877198845017,0
2,410,0.3869276681226069,0
2,411,0.37991425155733105,0
2,412,0.35544653854885155,0
2,413,0.389709453911322,0
2,414,0.39854465433623537,0
2,415,0.3690920971059008,0
2,416,0.35764229965931754,0
2,417,0.3282070828660784,0
2,418,0.31562680322834863,0
2,419,0.22496155447071403,0
2,420,0.18962850702692163,0
2,421,0.027047664106665682,0
2,422,0.019063366571879292,0
2,423,-0.07377504717133063,0
2,424,-0.16923472068327972,0
2,425,-0.30287491923607357,0
2,426,-0.2972755156813175,0
2,427,-0.34595921874783897,0
2,428,-0.3895507776873135,0
2,429,-0.27082042509420057,0
2,430,-0.18995560796286076,0
2,431,-0.14716643548310765,0
2,432,0.028804978972837104,0
2,433,0.2023043371268622,0
2,434,0.3520346277579126,0
2,435,0.48934536647817417,0
2,436,0.5469146917778549,0
2,437,0.7156899226203929,0
2,438,0.7668976370136578,0
2,439,0.8284403266246506,0
2,440,0.8193176267425639,0
2,441,0.7917812924495065,0
2,442,0.7610163829811829,0
2,443,0.6854537666129162,0
2,444,0.620466101706027,0
2,445,0.5393000118218921,0
2,446,0.4500122195977674,0
2,447,0.43092251935193226,0
2,448,0.34866271063760623,0
2,449,0.3145378057055487,0
2,450,0.2864010224961636,0
2,451,0.20850758811814016,0
2,452,0.18870636794246262,0
2,453,0.20043818892485313,0
3,0,0.22113405511318035,0
3,1,0.24557976792001057,0
3,2,0.25796169457048745,0
3,3,0.30239276069611115,0
3,4,0.2945146612742436,0
3,5,0.2901347500523993,0
3,6,0.3614022805103121,0
3,7,0.310262233539585,0
3,8,0.35502563659805086,0
3,9,0.37211329532216547,0
3,10,0.3162254844510337,0
3,11,0.35702341494006434,0
3,12,0.3531362486095939,0
3,13,0.3594564349629835,0
3,14,0.3903748660958843,0
3,15,0.37424219696145217,0
3,16,0.38329407377510605,0
3,17,0.3946250619266689,0
3,18,0.3923753125658172,0
3,19,0.37375889517792044,0
3,20,0.4041864440897471,0
3,21,0.3918446997694577,0
3,22,0.34985517292249896,0
3,23,0.2953335286129582,0
3,24,0.2354095357559285,0
3,25,0.16899275857064774,0
3,26,0.15231695625836103,0
3,27,0.03800166093284257,0
3,28,-0.08627828240777008,0
3,29,-0.15087670327207112,0
3,30,-0.2341968501453661,0
3,31,-0.2679572250777967,0
3,32,-0.2938998303085588,0
3,33,-0.27497015576647327,0
3,34,-0.2692307907974435,0
3,35,-0.16971705352316874,0
3,36,-0.09428868021951763,0
3,37,0.05286423402812068,0
3,38,0.24796645662223873,0
3,39,0.3670566967184709,0
3,40,0.5168933340522647,0
3,41,0.6624928736923807,0
3,42,0.7785102282995652,0
3,43,0.813113215818873,0
3,44,0.800318822226832,0
3,45,0.8554135014194085,0
3,46,0.8711997534062464,0
3,47,0.8056207380735498,0
3,48,0.7612896388584683,0
3,49,0.6396486615727957,0
3,50,0.5547195169792611,0
3,51,0.5248321921921587,0
3,52,0.45491637197970647,0
3,53,0.3993197277523068,0
3,54,0.3642732161685521,0
3,55,0.3154630764840257,0
3,56,0.28455185399774685,0
3,57,0.26673561199217904,0
3,58,0.24354035251227016,0
3,59,0.23531570832525703,0
3,60,0.2253935968289984,0
3,61,0.22431912319984454,0
3,62,0.16985789497854425,0
3,63,0.18182662185141119,0
3,64,0.1541113826823453,0
3,65,0.13392794298553629,0
3,66,0.1256113704104722,0
3,67,0.13782539133342878,0
3,68,0.12456527705170169,0
3,69,0.11227290191722707,0
3,70,0.08764744313031556,0
3,71,0.07999812379892018,0
3,72,0.08395696679608922,0
3,73,0.02541753245163889,0
3,74,0.04325594621438016,0
3,75,0.032093544531050164,0
3,76,0.03288240183206881,0
3,77,-0.021660781124101906,0
3,78,0.02279513090443099,0
3,79,-0.015252428361442527,0
3,80,-0.02656318264125111,0
3,81,-0.0522311187240342,0
3,82,-0.04567762826348294,0
3,83,-0.06762632704324051,0
3,84,-0.056452946008491475,0
3,85,-0.12139666302373536,0
3,86,-0.1008643622423035,0
3,87,-0.10787526302539885,0
3,88,-0.13129248679745426,0
3,89,-0.1470149072685937,0
3,90,-0.15736220730917394,0
3,91,-0.15760474599522475,0
3,92,-0.20809245362458131,0
3,93,-0.16317847944624284,0
3,94,-0.20244538264793643,0
3,95,-0.20041805849564123,0
3,96,-0.20552001550309285,0
3,97,-0.2330121339919555,0
3,98,-0.23448647861337002,0
3,99,-0.28166589691875765,0
3,100,-0.2351299647965683,0
3,101,-0.23668892813271886,0
3,102,-0.3005254470752522,0
3,103,-0.28253928521121663,0
3,104,-0.30659076355074877,0
3,105,-0.2928040750421164,0
3,106,-0.2831965697329204,0
3,107,-0.28299982367522664,0
3,108,-0.2865352218835733,0
3,109,-0.28863053985931575,0
3,110,-0.32479529071040075,0
3,111,-0.34842233622481006,0
3,112,-0.33253601590844695,0
3,113,-0.32195962411416335,0
3,114,-0.3631658499677155,0
3,115,-0.30902411199774016,0
3,116,-0.32748180139650745,0
3,117,-0.35238658032060566,0
3,118,-0.36488811847003927,0
3,119,-0.3660655754507374,0
3,120,-0.35280620884706265,0
3,121,-0.36007836784750796,0
3,122,-0.33727157054746104,0
3,123,-0.3635227304011612,0
3,124,-0.346524423678219,0
3,125,-0.3567736701324562,0
3,126,-0.349952202282427,0
3,127,-0.3586875065212068,0
3,128,-0.3382643221087005,0
3,129,-0.33589307579201255,0
3,130,-0.338665478953853,0
3,131,-0.3328312645365745,0
3,132,-0.3605865209091798,0
3,133,-0.33155513849157403,0
3,134,-0.3089638673287734,0
3,135,-0.3196586384495147,0
3,136,-0.34525532981709195,0
3,137,-0.3204108298817715,0
3,138,-0.3063159752917212,0
3,139,-0.3229947096377598,0
3,140,-0.3286805018684339,0
3,141,-0.3011489696887983,0
3,142,-0.30260594616482944,0
3,143,-0.28069485731603744,0
3,144,-0.3045219417483099,0
3,145,-0.2533574444552115,0
3,146,-0.268982222269596,0
3,147,-0.22770330005991227,0
3,148,-0.24418296602026449,0
3,149,-0.22988700581961366,0
3,150,-0.22329122608344004,0
3,151,-0.22377186742109206,0
3,152,-0.15047813118856737,0
3,153,-0.19950332894328252,0
3,154,-0.1585356999181468,0
3,155,-0.19006753066188437,0
3,156,-0.14972094120254933,0
3,157,-0.1363458700926865,0
3,158,-0.13496927532785002,0
3,159,-0.13428268951005978,0
3,160,-0.11633228388774014,0
3,161,-0.10717341564332779,0
3,162,-0.03895971702444718,0
3,163,-0.07520822481446181,0
3,164,-0.05189022196161341,0
3,165,-0.014275986927218834,0
3,166,-0.05485687099499213,0
3,167,-0.02391378566786651,0
3,168,-0.017314747162257924,0
3,169,-0.000858504875695554,0
3,170,0.010125435900914673,0
3,171,0.01194241662297278,0
3,172,0.043382031374308586,0
3,173,0.031121311017945383,0
3,174,0.08504471584731674,0
3,175,0.09060599013511551,0
3,176,0.08110961214305813,0
3,177,0.09487135358452882,0
3,178,0.12201324147712364,0
3,179,0.11319083425791275,0
3,180,0.17797366848448892,0
3,181,0.16136552320080239,0
3,182,0.1744329342221669,0
3,183,0.1924321721192942,0
3,184,0.17931188525812644,0
3,185,0.22462899618439083,0
3,186,0.21692451346313968,0
3,187,0.24524701351130723,0
3,188,0.23370849152062914,0
3,189,0.27523793576173095,0
3,190,0.2679338072208948,0
3,191,0.3143499799016747,0
3,192,0.2738694759132582,0
3,193,0.29566719133325026,0
3,194,0.28100651300409146,0
3,195,0.3008494811305099,0
3,196,0.3333356720142601,0
3,197,0.35279657880247084,0
3,198,0.39847679304335065,0
3,199,0.3459302591579375,0
3,200,0.33761282887750244,0
3,201,0.3795034795778572,0
3,202,0.3498152938327985,0
3,203,0.3914100163200464,0
3,204,0.37770504992218584,0
3,205,0.39954344188294866,0
3,206,0.4246870042774053,0
3,207,0.40822875443021156,0
3,208,0.4366672467482318,0
3,209,0.4428804372653014,0
3,210,0.39505519178884163,0
3,211,0.4201791699379269,0
3,212,0.4109016217442561,0
3,213,0.48290537309590376,0
3,214,0.43668118328850736,0
3,215,0.4635771596543086,0
3,216,0.3756261295709053,0
3,217,0.36628036955847193,0
3,218,0.35070126747143193,0
3,219,0.28192144561117577,0
3,220,0.2197302563898575,0
3,221,0.10380701417502487,0
3,222,0.06907819454355862,0
3,223,-0.031840850020388646,0
3,224,-0.12277288106349776,0
3,225,-0.21442646123889492,0
3,226,-0.24251908919082718,0
3,227,-0.2742754592034057,0
3,228,-0.28681784528330667,0
3,229,-0.20366986401890275,0
3,230,-0.11914471029701344,0
3,231,0.022807693833717845,0
3,232,0.09752423472781074,0
3,233,0.30036715037844114,0
3,234,0.4272167616735406,0
3,235,0.6010492200359827,0
3,236,0.7259674404262663,0
3,237,0.8122906515731464,0
3,238,0.8928437931892528,0
3,239,0.8803681839387291,0
3,240,0.9239087003505178,0
3,241,0.8564988201010686,0
3,242,0.7871624283470823,0
3,243,0.7462268140691373,0
3,244,0.6358914678915012,0
3,245,0.607848032992459,0
3,246,0.5262231160357175,0
3,247,0.49170882093043755,0
3,248,0.4244413346517568,0
3,249,0.3373748919142694,0
3,250,0.311056278458856,0
3,251,0.30858584954430357,0
3,252,0.2917516916175329,0
3,253,0.2806643793472296,0
3,254,0.26526592345522565,0
3,255,0.22611556220404855,0
3,256,0.22333498338383295,0
3,257,0.23081530076958445,0
3,258,0.18767953305302618,0
3,259,0.19013430706964435,0
3,260,0.16455662001491492,0
3,261,0.14834663729738806,0
3,262,0.14832841894188667,0
3,263,0.12136097442665987,0
3,264,0.12004224810147267,0
3,265,0.0893495060032484,0
3,266,0.09351352017071114,0
3,267,0.09345461771605962,0
3,268,0.05982001815140126,0
3,269,0.05884677195337929,0
3,270,0.048489467024066465,0
3,271,0.04178765581318058,0
3,272,0.01710756459880497,0
3,273,0.028560863752709144,0
3,274,-0.0480745064794357,0
3,275,0.03984869719355164,0
3,276,-0.049116542214447514,0
3,277,-0.036337693756259976,0
3,278,-0.07579755124572951,0
3,279,-0.056663655981376196,0
3,280,-0.07642375592153931,0
3,281,-0.10724811091234406,0
3,282,-0.08491079753815278,0
3,283,-0.12163803826412542,0
3,284,-0.11923607927557794,0
3,285,-0.16016837516073876,0
3,286,-0.1538990050150262,0
3,287,-0.12446875953492495,0
3,288,-0.1563213240573308,0
3,289,-0.18024874707277974,0
3,290,-0.20596585912435422,0
3,291,-0.20597870611560662,0
3,292,-0.21346300336291463,0
3,293,-0.21824953920916634,0
3,294,-0.25831124636469044,0
3,295,-0.2326682431659026,0
3,296,-0.2767916620385445,0
3,297,-0.23103661488193927,0
3,298,-0.2874381855593513,0
3,299,-0.27409824400851474,0
3,300,-0.267623739509676,0
3,301,-0.3001327916978647,0
3,302,-0.2952871924704691,0
3,303,-0.280057909547818,0
3,304,-0.30377748551382083,0
3,305,-0.31389388074957847,0
3,306,-0.360269360331059,0
3,307,-0.3504407228655022,0
3,308,-0.315639215511428,0
3,309,-0.32960391435552555,0
3,310,-0.3306085103980861,0
3,311,-0.33597048463611534,0
3,312,-0.32612602329369655,0
3,313,-0.3599909131475666,0
3,314,-0.35479101257539436,0
3,315,-0.3798066598049131,0
3,316,-0.386418002675986,0
3,317,-0.39494753796241816,0
3,318,-0.3805809669401981,0
3,319,-0.332220669115493,0
3,320,-0.39430975406614366,0
3,321,-0.3688986314900423,0
3,322,-0.38785363104928383,0
3,323,-0.37276428052213906,0
3,324,-0.355697843148583,0
3,325,-0.37103579774587697,0
3,326,-0.33277921357062235,0
3,327,-0.32103209480275685,0
3,328,-0.39343609807486624,0
3,329,-0.3584636148627038,0
3,330,-0.33958165797708123,0
3,331,-0.31381853467523124,0
3,332,-0.34062267477066843,0
3,333,-0.3267592436378125,0
3,334,-0.3439496830651023,0
3,335,-0.3455625637279714,0
3,336,-0.2797348338377994,0
3,337,-0.33851065831770283,0
3,338,-0.24850165036513885,0
3,339,-0.2732813502363603,0
3,340,-0.26656873334562337,0
3,341,-0.26072433923013405,0
3,342,-0.2690432099317212,0
3,343,-0.24760274351058312,0
3,344,-0.2503856630424452,0
3,345,-0.2264274239410064,0
3,346,-0.22877144787920858,0
3,347,-0.23745126397041766,0
3,348,-0.225950452314656,0
3,349,-0.218077888920688,0
3,350,-0.16859748731923435,0
3,351,-0.18976823225063133,0
3,352,-0.20485724657551022,0
3,353,-0.14767794410942392,0
3,354,-0.11413932193277151,0
3,355,-0.11761035110113219,0
3,356,-0.13362035891453788,0
3,357,-0.14162383893079367,0
3,358,-0.10077099658373972,0
3,359,-0.08934506582923983,0
3,360,-0.09350919826292425,0
3,361,-0.05097159797533071,0
3,362,-0.012842430834583106,0
3,363,-0.03304044995255405,0
3,364,-0.021929373450893717,0
3,365,-0.031491086711256805,0
3,366,0.027626072250189673,0
4,0,0.2583047377991312,0
4,1,0.29323947467605277,0
4,2,0.28586554277345194,0
4,3,0.28133531165557196,0
4,4,0.30362595220174377,0
4,5,0.3139506107341924,0
4,6,0.2861707530136376,0
4,7,0.34304056060594185,0
4,8,0.32184518984953125,0
4,9,0.3300853250942801,0
4,10,0.3583406296725455,0
4,11,0.36605447984205153,0
4,12,0.3450469474108407,0
4,13,0.38327323951307307,0
4,14,0.3643287794853378,0
4,15,0.4202655193993412,0
4,16,0.3753054984664782,0
4,17,0.4036851177287227,0
4,18,0.3883399584214373,0
4,19,0.4502124023974158,0
4,20,0.3777110446613915,0
4,21,0.40249642946073566,0
4,22,0.3574002592190147,0
4,23,0.33342513268578716,0
4,24,0.30446915461973995,0
4,25,0.26021319692758976,0
4,26,0.1940902530546346,0
4,27,0.04405738824183919,0
4,28,-0.015935514362779214,0
4,29,-0.09219856957655029,0
4,30,-0.25241551885795505,0
4,31,-0.2991600777026201,0
4,32,-0.3735860029644122,0
4,33,-0.40731706950441393,0
4,34,-0.44131823212427396,0
4,35,-0.42975042303808214,0
4,36,-0.37912026254493225,0
4,37,-0.228822941348565,0
4,38,-0.10750719568428801,0
4,39,0.012976735289539857,0
4,40,0.14050517892796538,0
4,41,0.26038981927688987,0
4,42,0.4335984747423975,0
4,43,0.5097958696617473,0
4,44,0.6016983003924453,0
4,45,0.6603509003524536,0
4,46,0.6964706113741383,0
4,47,0.6882372730745991,0
4,48,0.6859419203981449,0
4,49,0.6387441864752252,0
4,50,0.6206374169719651,0
4,51,0.577307452659198,0
4,52,0.5079149311169044,0
4,53,0.4663275539059897,0
4,54,0.45521555143949466,0
4,55,0.3507897005206145,0
4,56,0.31685093748644233,0
4,57,0.3282651914302401,0
4,58,0.3309868440751227,0
4,59,0.26847470833644266,0
4,60,0.29285134710456673,0
4,61,0.24701625459786972,0
4,62,0.2196648443316833,0
4,63,0.20252360353016266,0
4,64,0.22443106965973586,0
4,65,0.1832216870420717,0
4,66,0.19282323050944417,0
4,67,0.2124444122131747,0
4,68,0.16407074726272938,0
4,69,0.18575702800511382,0
4,70,0.12429943277325503,0
4,71,0.12688144231386544,0
4,72,0.09825836836227131,0
4,73,0.11659210760773889,0
4,74,0.11937012717840349,0
4,75,0.09382907322741794,0
4,76,0.1053571746973143,0
4,77,0.05427022796849808,0
4,78,0.062157125161077326,0
4,79,0.03546771189052284,0
4,80,0.041599089466718905,0
4,81,0.0327814542726464,0
4,82,0.022699526447549717,0
4,83,-0.022000788450966438,0
4,84,-0.02999884139982202,0
4,85,-0.037868365105331314,0
4,86,-0.04009179771410626,0
4,87,-0.04504416022410984,0
4,88,-0.044031253849415725,0
4,89,-0.08648097355954124,0
4,90,-0.11277561059220916,0
4,91,-0.04877637780497626,0
4,92,-0.12554573150019172,0
4,93,-0.09709476454664699,0
4,94,-0.12396944305738741,0
4,95,-0.13020113955896995,0
4,96,-0.1457397508201608,0
4,97,-0.16372630851575856,0
4,98,-0.15690037034201756,0
4,99,-0.1849220498907071,0
4,100,-0.1626055801314273,0
4,101,-0.18414585240099274,0
4,102,-0.19289858645186614,0
4,103,-0.22419272561465806,0
4,104,-0.227712593260186,0
4,105,-0.2554460720496749,0
4,106,-0.24720939602063174,0
4,107,-0.26909287324110803,0
4,108,-0.2300555932034781,0
4,109,-0.262997727129081,0
4,110,-0.2680186347325892,0
4,111,-0.2830733353479809,0
4,112,-0.28147562932592135,0
4,113,-0.24269498486895733,0
4,114,-0.3042630161119162,0
4,115,-0.31723257568777946,0
4,116,-0.2992853552848473,0
4,117,-0.36573394166357914,0
4,118,-0.31896117006936897,0
4,119,-0.3323709166901577,0
4,120,-0.34915041991016543,0
4,121,-0.32318346843874896,0
4,122,-0.3359564249638393,0
4,123,-0.3764414884727746,0
4,124,-0.35633731608546027,0
4,125,-0.40383893083946004,0
4,126,-0.3425256518675075,0
4,127,-0.34469103574998244,0
4,128,-0.3678351284384488,0
4,129,-0.34242453267874395,0
4,130,-0.37977756005095614,0
4,131,-0.3740012339272132,0
4,132,-0.3465122228227438,0
4,133,-0.3684559944725424,0
4,134,-0.35540389806463174,0
4,135,-0.36453362323319005,0
4,136,-0.36023157345896345,0
4,137,-0.3577531332149882,0
4,138,-0.36258416694103757,0
4,139,-0.34008672341738194,0
4,140,-0.3560292188070103,0
4,141,-0.3401423561006734,0
4,142,-0.3516692596989551,0
4,143,-0.36407513077058345,0
4,144,-0.3110941989947361,0
4,145,-0.31496885275513575,0
4,146,-0.2744688203570143,0
4,147,-0.33607571206824594,0
4,148,-0.31400442791190575,0
4,149,-0.30670424275034464,0
4,150,-0.2783405274173914,0
4,151,-0.30195416993739943,0
4,152,-0.30861282646607063,0
4,153,-0.254117549432127,0
4,154,-0.2773964121848439,0
4,155,-0.24599457592899443,0
4,156,-0.24054856192129562,0
4,157,-0.2483434192224786,0
4,158,-0.24292015597882646,0
4,159,-0.23869608188816768,0
4,160,-0.22234985972465915,0
4,161,-0.19572341662896192,0
4,162,-0.21961998867673127,0
4,163,-0.19199471832720794,0
4,164,-0.2068079366236422,0
4,165,-0.19437308981855403,0
4,166,-0.16496632237256628,0
4,167,-0.1932173236059805,0
4,168,-0.10228895449161633,0
4,169,-0.15667609693093576,0
4,170,-0.1227698699856556,0
4,171,-0.08760515062019343,0
4,172,-0.11708713349716882,0
4,173,-0.1346106488111138,0
4,174,-0.08606163368700759,0
4,175,-0.08315374225163358,0
4,176,-0.09957841088054856,0
4,177,-0.03665621621814759,0
4,178,-0.026435239590100912,0
4,179,0.004115642893870335,0
4,180,-0.029242472079309974,0
4,181,-0.026856020582738893,0
4,182,0.008982049675224773,0
4,183,0.02736568832205891,0
4,184,0.059590925174727936,0
4,185,0.08141116339406321,0
4,186,0.0895188453805201,0
4,187,0.08277229878579002,0
4,188,0.10521540405062188,0
4,189,0.08836052528261588,0
4,190,0.11643343806032164,0
4,191,0.10107426359120074,0
4,192,0.13791697783547055,0
4,193,0.15011742061383238,0
4,194,0.19437570285059405,0
4,195,0.1668390407251976,0
4,196,0.18459163225778052,0
4,197,0.19877827969380335,0
4,198,0.1960569174414685,0
4,199,0.200073655622426,0
4,200,0.25291588373346746,0
4,201,0.21797359970780952,0
4,202,0.22151235341264358,0
4,203,0.2719717496323072,0
4,204,0.29162607703496074,0
4,205,0.26934335872487813,0
4,206,0.2793416908320153,0
4,207,0.3031854694194206,0
4,208,0.2926214029544136,0
4,209,0.3001536181200603,0
4,210,0.3421492720664512,0
4,211,0.3452256033971153,0
4,212,0.3675877466102724,0
4,213,0.32435593555216735,0
4,214,0.3471767197693898,0
4,215,0.3704674476038173,0
4,216,0.35378747418440537,0
4,217,0.3924825130900209,0
4,218,0.41145378296719426,0
4,219,0.3826524580518853,0
4,220,0.4025777665727274,0
4,221,0.43859211257582953,0
4,222,0.45332802888798035,0
4,223,0.4402034408174461,0
4,224,0.4449021660649581,0
4,225,0.4229777926376756,0
4,226,0.45267777182868885,0
4,227,0.4592621907549633,0
4,228,0.4421084389700355,0
4,229,0.42617013287820843,0
4,230,0.3955041531689772,0
4,231,0.3584745241470185,0
4,232,0.3133958060257189,0
4,233,0.30873338364490277,0
4,234,0.23025973421785847,0
4,235,0.1343071201507581,0
4,236,0.043410877137874455,0
4,237,-0.0456458471608776,0
4,238,-0.15267386583735376,0
4,239,-0.26781273665313415,0
4,240,-0.2983808112619537,0
4,241,-0.36249605405158614,0
4,242,-0.3850866610562524,0
4,243,-0.36116583644753636,0
4,244,-0.3460803617480487,0
4,245,-0.2237327946054778,0
4,246,-0.14042223313619895,0
4,247,0.011336232519186803,0
4,248,0.15062025842707452,0
4,249,0.25833819999571017,0
4,250,0.4232127590005304,0
4,251,0.5360789547088234,0
4,252,0.622677626359197,0
4,253,0.6852949784585484,0
4,254,0.7224248262713487,0
4,255,0.7509617107590488,0
4,256,0.7341399887224295,0
4,257,0.693320299190344,0
4,258,0.6207088159096579,0
4,259,0.6112797011665846,0
4,260,0.5643489900319495,0
4,261,0.5456688347501819,0
4,262,0.474798846064659,0
4,263,0.3742571889502626,0
4,264,0.37863621969887684,0
4,265,0.3838512881293628,0
4,266,0.33576560418209855,0
4,267,0.3097876652720248,0
4,268,0.30444688892902566,0
4,269,0.2596369175527358,0
4,270,0.2689322806806039,0
4,271,0.24267543198179536,0
4,272,0.2361764545511576,0
4,273,0.24227328976799167,0
4,274,0.19635102034146887,0
4,275,0.22975136066082,0
4,276,0.18450578272299187,0
4,277,0.1869859833182552,0
4,278,0.1424125589803013,0
4,279,0.17331937793036326,0
4,280,0.17621827261720963,0
4,281,0.1252436321366548,0
4,282,0.10147952894075973,0
4,283,0.11730582527182216,0
4,284,0.12883328752628864,0
4,285,0.0586726441313051,0
4,286,0.053430358611674895,0
4,287,0.05432523991961628,0
4,288,0.034831797262225975,0
4,289,0.02271290412416667,0
4,290,-0.01500852186330695,0
4,291,0.02648261129525476,0
4,292,0.009324686273381382,0
4,293,-0.043545803909782486,0
4,294,0.00749893702761226,0
4,295,-4.5559218923692246e-05,0
4,296,-0.06064347224325204,0
4,297,-0.034177193934361055,0
4,298,-0.08076516593326517,0
4,299,-0.07738363398876416,0
4,300,-0.10931523168155774,0
4,301,-0.05979191280330479,0
4,302,-0.12134693901593385,0
4,303,-0.12410984714668961,0
4,304,-0.151462402277111,0
4,305,-0.11138491104976095,0
4,306,-0.12161953267994313,0
4,307,-0.13729732498799208,0
4,308,-0.16116527366822003,0
4,309,-0.20297291208416407,0
4,310,-0.1838989869486079,0
4,311,-0.2103626859608125,0
4,312,-0.1935178137304451,0
4,313,-0.20676196138446987,0
4,314,-0.25114094647388896,0
4,315,-0.22802834208162887,0
4,316,-0.24191918352708267,0
4,317,-0.3193443686251935,0
4,318,-0.2558985149048964,0
4,319,-0.28832111674176875,0
4,320,-0.30489099255086977,0
4,321,-0.3112307185820181,0
4,322,-0.30396984428086177,0
4,323,-0.29826135849258534,0
4,324,-0.34146168131576166,0
4,325,-0.3163322265799143,0
4,326,-0.3142524270420052,0
4,327,-0.29388664243556406,0
4,328,-0.3576638934876139,0
4,329,-0.347797525343073,0
4,330,-0.3399110740160456,0
4,331,-0.3261953671459705,0
4,332,-0.35888403868467295,0
4,333,-0.33213646019447896,0
4,334,-0.39781722841987516,0
4,335,-0.38674617579219794,0
4,336,-0.35696197884287023,0
4,337,-0.3940516450106158,0
4,338,-0.3908680265759057,0
4,339,-0.3791196480526375,0
4,340,-0.35396204838498885,0
4,341,-0.407777581878893,0
4,342,-0.3665603587349742,0
4,343,-0.34905584498149833,0
4,344,-0.37300408401510027,0
4,345,-0.3755139268495866,0
4,346,-0.35877728081037014,0
4,347,-0.36897503453904085,0
4,348,-0.33528945308941577,0
4,349,-0.3829430004831807,0
4,350,-0.3590140200082301,0
4,351,-0.35078767855812887,0
4,352,-0.35904771205981345,0
4,353,-0.40514186154082715,0
4,354,-0.34683594252454775,0
4,355,-0.32118401272253294,0
4,356,-0.31886746503915964,0
4,357,-0.3222531788653694,0
4,358,-0.34590700895174264,0
4,359,-0.3103316997811252,0
4,360,-0.32368737272849757,0
4,361,-0.29882805212554947,0
4,362,-0.29685111264452757,0
4,363,-0.31190294144111624,0
4,364,-0.30303607236860863,0
4,365,-0.27062215646743903,0
4,366,-0.27441173367418503,0
4,367,-0.2788005140450105,0
4,368,-0.27220302025174326,0
4,369,-0.2513284835114331,0
4,370,-0.20515716621179353,0
4,371,-0.23807840752188814,0
4,372,-0.21865346523979803,0
4,373,-0.20694371489734179,0
4,374,-0.22199680324669324,0
4,375,-0.22483778464770734,0
4,376,-0.20013320816031055,0
4,377,-0.1645018870530937,0
4,378,-0.15737318195521535,0
4,379,-0.13459106461245213,0
4,380,-0.13607645584097008,0
4,381,-0.12943753716256343,0
4,382,-0.1284348346692663,0
4,383,-0.08765364805839972,0
4,384,-0.11261406166177566,0
4,385,-0.10522702560104732,0
4,386,-0.06038091159441919,0
4,387,-0.08701315256301109,0
4,388,-0.0006178246776638516,0
4,389,-0.03582378446742172,0
4,390,-0.018932670838270375,0
4,391,-0.03049426842076785,0
4,392,-0.009045018926152813,0
4,393,0.00032166072453553886,0
4,394,0.0096161403022973,0
4,395,0.04469676065854668,0
4,396,0.03460848561700737,0
4,397,0.07547947329954596,0
4,398,0.11987869571526336,0
4,399,0.07213521715620885,0
4,400,0.09245802364642981,0
4,401,0.10829104811088981,0
4,402,0.14813463179561218,0
4,403,0.12135763465562804,0
4,404,0.11742881228782523,0
4,405,0.11956308319891412,0
4,406,0.1544829230186396,0
4,407,0.15728957222281503,0
4,408,0.216923828402671,0
4,409,0.2224294083449224,0
4,410,0.17648557541358129,0
4,411,0.1929215124273891,0
4,412,0.2183892264623059,0
4,413,0.2544396762229844,0
4,414,0.23701191199380317,0
4,415,0.23208966661622593,0
4,416,0.2527973467786162,0
4,417,0.25011580737488204,0
4,418,0.2832106525621321,0
4,419,0.2652157921266537,0
4,420,0.2771815095188023,0
4,421,0.3183845437749199,0
4,422,0.2873066633220749,0
4,423,0.28107249649278176,0
4,424,0.31904259218192277,0
4,425,0.31695665368687,0
4,426,0.3413592415862133,0
4,427,0.3444659462030949,0
5,0,0.2591692512424643,0
5,1,0.2665465801693738,0
5,2,0.260840101819719,0
5,3,0.2848438287791436,0
5,4,0.30825552538801665,0
5,5,0.2784565546144807,0
5,6,0.3049741199952133,0
5,7,0.3328981685363931,0
5,8,0.3292269437485608,0
5,9,0.3523056570679001,0
5,10,0.32185662245808694,0
5,11,0.30393631235622365,0
5,12,0.3522736710055714,0
5,13,0.36375898268706147,0
5,14,0.3928134447907151,0
5,15,0.3989431919283403,0
5,16,0.39645752161180364,0
5,17,0.41222230883475525,0
5,18,0.4045141457514414,0
5,19,0.39491173779505134,0
5,20,0.4309578604381455,0
5,21,0.4543406838805235,0
5,22,0.44864806711844285,0
5,23,0.4453813350803758,0
5,24,0.4030953985968191,0
5,25,0.37650918738201056,0
5,26,0.3467321074342159,0
5,27,0.2650654692587214,0
5,28,0.18806039610006894,0
5,29,0.11138120820496616,0
5,30,0.015229918510053151,0
5,31,-0.11730298728738595,0
5,32,-0.25181349823949306,0
5,33,-0.3533856288139013,0
5,34,-0.4321604948493094,0
5,35,-0.5103113898179965,0
5,36,-0.5615751947940186,0
5,37,-0.5783851709545456,0
5,38,-0.5793594577017765,0
5,39,-0.5337283640976648,0
5,40,-0.47147869871697395,0
5,41,-0.3563635408454014,0
5,42,-0.2433925494410159,0
5,43,-0.17995921024855527,0
5,44,-0.04434207579077688,0
5,45,0.07269395024057916,0
5,46,0.16685641640841195,0
5,47,0.2932667854335059,0
5,48,0.3300868727167924,0
5,49,0.36026011697061133,0
5,50,0.4225714934162878,0
5,51,0.43581870981760273,0
5,52,0.44429359603578367,0
5,53,0.473028569534901,0
5,54,0.4361041342422105,0
5,55,0.4111762695589329,0
5,56,0.36418774732618037,0
5,57,0.38535715468644316,0
5,58,0.40045821150722116,0
5,59,0.3590593492893774,0
5,60,0.30374760533975853,0
5,61,0.3273968730042853,0
5,62,0.3470707081766128,0
5,63,0.32883904834709976,0
5,64,0.29247706445945704,0
5,65,0.2897701614382281,0
5,66,0.2849423689520445,0
5,67,0.27212695449257335,0
5,68,0.23705492047290477,0
5,69,0.2851582003534198,0
5,70,0.28718879068623815,0
5,71,0.2237336610189401,0
5,72,0.27091215462223883,0
5,73,0.23577686255516814,0
5,74,0.2540100326689473,0
5,75,0.22180585112411763,0
5,76,0.21517023720013695,0
5,77,0.211198416491601,0
5,78,0.1791221253063487,0
5,79,0.20987983304722824,0
5,80,0.1545168116123436,0
5,81,0.15976245183006657,0
5,82,0.1690559129635027,0
5,83,0.1390672541536011,0
5,84,0.15540231460235962,0
5,85,0.15789586459001345,0
5,86,0.1410890047974004,0
5,87,0.07251442626930316,0
5,88,0.10409787262594514,0
5,89,0.11245082141089861,0
5,90,0.055796975596834594,0
5,91,0.08682403283087049,0
5,92,0.07589254993307931,0
5,93,0.02847127115769209,0
5,94,0.05955226841769472,0
5,95,0.03846752722894016,0
5,96,0.03616517677601196,0
5,97,-0.006020120261364812,0
5,98,0.006468652327310036,0
5,99,-0.04045403161292676,0
5,100,-0.06169429022319751,0
5,101,-0.023104957102429057,0
5,102,-0.013639147445268587,0
5,103,-0.04027793764008038,0
5,104,-0.05624068586014916,0
5,105,-0.06830060400845195,0
5,106,-0.09291604125722068,0
5,107,-0.08794704910521005,0
5,108,-0.08444520275718391,0
5,109,-0.11087008993980003,0
5,110,-0.09635213697919108,0
5,111,-0.11654792033807883,0
5,112,-0.12313060344566881,0
5,113,-0.1205929040308511,0
5,114,-0.15768447525249313,0
5,115,-0.1426263211419738,0
5,116,-0.17208358955612363,0
5,117,-0.1659737238042202,0
5,118,-0.19395360080953702,0
5,119,-0.2073850687072535,0
5,120,-0.19531972359245273,0
5,121,-0.24269490045034925,0
5,122,-0.2185927313244862,0
5,123,-0.2523088593426456,0
5,124,-0.21194298810998213,0
5,125,-0.21369928905202623,0
5,126,-0.258977024006189,0
5,127,-0.23994620631368432,0
5,128,-0.2371576058307666,0
5,129,-0.24352772314064053,0
5,130,-0.26352948186182285,0
5,131,-0.2591741989291855,0
5,132,-0.2926850467247209,0
5,133,-0.28366649894135904,0
5,134,-0.30009014640928117,0
5,135,-0.31062791198650824,0
5,136,-0.3002163869387085,0
5,137,-0.29875060546013926,0
5,138,-0.2869694260796843,0
5,139,-0.3092466323279,0
5,140,-0.3057900998011118,0
5,141,-0.30940806645455543,0
5,142,-0.2723314936261226,0
5,143,-0.36565224735996554,0
5,144,-0.3463383555912844,0
5,145,-0.30598314909306346,0
5,146,-0.3451436492382717,0
5,147,-0.3227791428418949,0
5,148,-0.3380378707300032,0
5,149,-0.30242640810638616,0
5,150,-0.36843214550142817,0
5,151,-0.32312268514516995,0
5,152,-0.31370074691151817,0
5,153,-0.3698596314855863,0
5,154,-0.3345372685045076,0
5,155,-0.36987209376684843,0
5,156,-0.3500700759020312,0
5,157,-0.35565979215139765,0
5,158,-0.3981814005828929,0
5,159,-0.34098366540367814,0
5,160,-0.3456876834410217,0
5,161,-0.31780360675948877,0
5,162,-0.3337383198838706,0
5,163,-0.2984656605113831,0
5,164,-0.34021179591104805,0
5,165,-0.3422808936362066,0
5,166,-0.3414247709717974,0
5,167,-0.34384797070620066,0
5,168,-0.37628266738615407,0
5,169,-0.33335773202999647,0
5,170,-0.36689386785755235,0
5,171,-0.3128379496631864,0
5,172,-0.3427829000166483,0
5,173,-0.3317351411322939,0
5,174,-0.3228698423544043,0
5,175,-0.3089826368474009,0
5,176,-0.2999209613835328,0
5,177,-0.27331831331152673,0
5,178,-0.30128651718741134,0
5,179,-0.274642824842535,0
5,180,-0.22392359119703434,0
5,181,-0.2650781420680033,0
5,182,-0.27011201943935553,0
5,183,-0.27575912371874417,0
5,184,-0.2575374746165716,0
5,185,-0.2646551077982103,0
5,186,-0.2346467808847596,0
5,187,-0.23085235956493771,0
5,188,-0.2688893804040997,0
5,189,-0.21856114693058767,0
5,190,-0.18904012210005908,0
5,191,-0.21075136508927017,0
5,192,-0.2078712194792514,0
5,193,-0.21425469730279942,0
5,194,-0.21559643185702132,0
5,195,-0.15339939637505848,0
5,196,-0.16510508771814292,0
5,197,-0.13734913873559385,0
5,198,-0.1133477039730834,0
5,199,-0.11661013088918334,0
5,200,-0.13682555281492878,0
5,201,-0.11391178886054135,0
5,202,-0.11982962188668456,0
5,203,-0.11232498652357244,0
5,204,-0.08183410752283013,0
5,205,-0.0957797962658237,0
5,206,-0.11367900561168784,0
5,207,-0.0775458198956977,0
5,208,-0.05613854592767921,0
5,209,-0.009728570916589904,0
5,210,-0.04007489192145816,0
5,211,-0.010067712734763468,0
5,212,-0.013679359938373504,0
5,213,0.024244428550539123,0
5,214,0.03291774112264487,0
5,215,0.0433821939814248,0
5,216,-0.0047213025735531045,0
5,217,0.04420271706633701,0
5,218,0.06536045414747589,0
5,219,0.06792285925954127,0
5,220,0.08312476244336117,0
5,221,0.08164433282215969,0
5,222,0.07564323007075154,0
5,223,0.0666291016504342,0
5,224,0.0976557561668271,0
5,225,0.1740828462604779,0
5,226,0.1207120125090623,0
5,227,0.10108600686961529,0
5,228,0.16471350163321105,0
5,229,0.17688792368194856,0
5,230,0.19516854790004437,0
5,231,0.188403762902383,0
5,232,0.20537087197725473,0
5,233,0.23464412480314206,0
5,234,0.1922113791828023,0
5,235,0.19741892681081974,0
5,236,0.20346729300244482,0
5,237,0.22898874338334327,0
5,238,0.2717938361018424,0
5,239,0.26237834095812995,0
5,240,0.2701470068953432,0
5,241,0.23240217362164883,0
5,242,0.2631931823208676,0
5,243,0.24846032144715424,0
5,244,0.3165575575629296,0
5,245,0.3326420967186663,0
5,246,0.3241494068029492,0
5,247,0.29628155702554027,0
5,248,0.3529440891839599,0
5,249,0.32535217873597594,0
5,250,0.31307303403917985,0
5,251,0.3248605233164332,0
5,252,0.34219259883897474,0
5,253,0.35832749552880777,0
5,254,0.3605922766956825,0
5,255,0.3420644229805576,0
5,256,0.40119673192675803,0
5,257,0.3807709585094186,0
5,258,0.37675052406843385,0
5,259,0.4210256257962416,0
5,260,0.38364687218763244,0
5,261,0.38403437429002896,0
5,262,0.45215704731350786,0
5,263,0.47524988487143977,0
5,264,0.439080564022026,0
5,265,0.45771528681082874,0
5,266,0.4442412322010749,0
5,267,0.47241760774679337,0
5,268,0.46244933920978415,0
5,269,0.46167762328597717,0
5,270,0.453164237809994,0
5,271,0.3912627416695089,0
5,272,0.35913135283174513,0
5,273,0.26704014550650973,0
5,274,0.21626031191096434,0
5,275,0.12660918365892207,0
5,276,0.02609135789161158,0
5,277,-0.08804835558942832,0
5,278,-0.1903732178635949,0
5,279,-0.3490161621875642,0
5,280,-0.4444397591198767,0
5,281,-0.4803208586468476,0
5,282,-0.581714624964724,0
5,283,-0.5571645807434581,0
5,284,-0.5725355110121813,0
5,285,-0.47466286108910927,0
5,286,-0.4307236287187986,0
5,287,-0.3475483566109616,0
5,288,-0.2107022074544702,0
5,289,-0.1408049151412492,0
5,290,-0.02091186303200301,0
5,291,0.08115234475027187,0
5,292,0.1873312603819169,0
5,293,0.2888807500415885,0
5,294,0.3634367365984447,0
5,295,0.4212826265208061,0
5,296,0.3977253451578283,0
5,297,0.4486611738514752,0
5,298,0.4361374305558203,0
5,299,0.45152149034220856,0
5,300,0.4934437775988335,0
5,301,0.4398855966211488,0
5,302,0.4373713405718157,0
5,303,0.44337251519044907,0
5,304,0.4118559097767051,0
5,305,0.36640710080894046,0
5,306,0.337037647177475,0
5,307,0.3502830032869099,0
5,308,0.3288839550612345,0
5,309,0.29993199254747305,0
5,310,0.3260505196600387,0
5,311,0.3177897337749267,0
5,312,0.3393582635780286,0
5,313,0.28837648638510915,0
5,314,0.2928835628995141,0
5,315,0.26560538623733543,0
5,316,0.2879315122705694,0
5,317,0.25941999448602393,0
5,318,0.22978058161684303,0
5,319,0.2441519589046682,0
5,320,0.2432882695796843,0
5,321,0.2315089916410178,0
5,322,0.23812029815771735,0
5,323,0.17891814976284603,0
5,324,0.1815849655891099,0
6,0,0.3014545960172433,0
6,1,0.24731325781393626,0
6,2,0.27635483164123553,0
6,3,0.3042846620689515,0
6,4,0.31120173239292126,0
6,5,0.31596681606366545,0
6,6,0.2748803274614344,0
6,7,0.2933822666038973,0
6,8,0.3664883638094873,0
6,9,0.3783422370957079,0
6,10,0.3504336201923815,0
6,11,0.38836626403961505,0
6,12,0.3479284218430653,0
6,13,0.3600855149034704,0
6,14,0.3610212419935582,0
6,15,0.3722402464096597,0
6,16,0.4082469239007369,0
6,17,0.37847023711114774,0
6,18,0.4384567391181695,0
6,19,0.39517639019754397,0
6,20,0.3925062728513035,0
6,21,0.3561610327350225,0
6,22,0.3354019603221979,0
6,23,0.24692833121175664,0
6,24,0.23515043479817,0
6,25,0.14154620797634831,0
6,26,0.089626337727376,0
6,27,-0.037022318535100185,0
6,28,-0.07169083794096842,0
6,29,-0.12487482310089917,0
6,30,-0.16990682877890434,0
6,31,-0.1510527912979313,0
6,32,-0.09121103412424,0
6,33,-0.0634201308334559,0
6,34,0.0777757540999017,0
6,35,0.17393059402676866,0
6,36,0.3972860678707248,0
6,37,0.5381684785196214,0
6,38,0.7198624568108891,0
6,39,0.8441758634420301,0
6,40,0.9552085613051801,0
6,41,1.0431072129312573,0
6,42,1.063401741117215,0
6,43,1.0317085057078657,0
6,44,1.0338676674435692,0
6,45,0.9404709180977759,0
6,46,0.8427810499679921,0
6,47,0.7747425150386757,0
6,48,0.6504841411701984,0
6,49,0.5749794190117848,0
6,50,0.44680756046395337,0
6,51,0.37446518863605716,0
6,52,0.3426160132142702,0
6,53,0.2749898552992231,0
6,54,0.20211037965807632,0
6,55,0.20929459692728344,0
6,56,0.21396540522906907,0
6,57,0.1603006275228619,0
6,58,0.17064381445656207,0
6,59,0.132180043268953,0
6,60,0.13745073332133578,0
6,61,0.15280938911816905,0
6,62,0.12563843714994455,0
6,63,0.13654302361881288,0
6,64,0.10803320294887865,0
6,65,0.13202601341327241,0
6,66,0.04395614928424954,0
6,67,0.05812129028979635,0
6,68,0.027707669787158922,0
6,69,0.01582346190894678,0
6,70,0.0026453312063720105,0
6,71,0.012730048116031161,0
6,72,0.00047559067802502124,0
6,73,-0.008908150375729507,0
6,74,-0.05328119428785817,0
6,75,-0.05060216516344027,0
6,76,-0.07661772370244763,0
6,77,-0.051727680399873924,0
6,78,-0.10084702023265918,0
6,79,-0.10057909475141849,0
6,80,-0.09781291583151225,0
6,81,-0.1338811915094314,0
6,82,-0.12006055208935766,0
6,83,-0.1141907035044108,0
6,84,-0.15428187864099938,0
6,85,-0.151782554385344,0
6,86,-0.22278216711825694,0
6,87,-0.20113984154395026,0
6,88,-0.1998379835583894,0
6,89,-0.2352910322831388,0
6,90,-0.22047974106346638,0
6,91,-0.21352727024113663,0
6,92,-0.28209046810724786,0
6,93,-0.2777215607047894,0
6,94,-0.25934061626766,0
6,95,-0.262569870592568,0
6,96,-0.265391752804141,0
6,97,-0.2859339287392255,0
6,98,-0.28653309989628106,0
6,99,-0.2849091135358189,0
6,100,-0.31807797896839285,0
6,101,-0.32835678894681936,0
6,102,-0.32552956517246434,0
6,103,-0.3237146201921874,0
6,104,-0.3459783629470312,0
6,105,-0.345353641197565,0
6,106,-0.3337412007883275,0
6,107,-0.3423027020887913,0
6,108,-0.3524678328664937,0
6,109,-0.3864224487632537,0
6,110,-0.35404406472206956,0
6,111,-0.37527653441715736,0
6,112,-0.337644467529037,0
6,113,-0.36443531012946273,0
6,114,-0.3786639513895081,0
6,115,-0.3599713938005886,0
6,116,-0.3328502658617628,0
6,117,-0.34469447692843075,0
6,118,-0.35148266953515134,0
6,119,-0.3804982680482391,0
6,120,-0.3191668847456806,0
6,121,-0.3611837195545539,0
6,122,-0.32676073141784834,0
6,123,-0.34816558700401623,0
6,124,-0.32067108237545594,0
6,125,-0.3065925207754188,0
6,126,-0.3146272860211045,0
6,127,-0.3068901851852655,0
6,128,-0.3179570374865319,0
6,129,-0.31821930056982395,0
6,130,-0.2999040181353952,0
6,131,-0.30218465053012245,0
6,132,-0.23835357166566798,0
6,133,-0.29946006908933126,0
6,134,-0.25109996493624004,0
6,135,-0.2519500132183008,0
6,136,-0.24848276522219132,0
6,137,-0.21391363496498092,0
6,138,-0.22763118485538228,0
6,139,-0.23605223817409632,0
6,140,-0.20695501069514832,0
6,141,-0.20558140774031142,0
6,142,-0.1806860060915974,0
6,143,-0.16304300288619128,0
6,144,-0.18477155791636085,0
6,145,-0.13171490244603162,0
6,146,-0.14851221359306396,0
6,147,-0.12210985230048661,0
6,148,-0.10599959406012667,0
6,149,-0.09815573006105534,0
6,150,-0.09466954570133729,0
6,151,-0.08907930872326608,0
6,152,-0.07135908546074793,0
6,153,-0.021215379648975054,0
6,154,-0.05625964581895099,0
6,155,-0.03965079278575717,0
6,156,-0.026768979725922952,0
6,157,0.005036066728463241,0
6,158,-0.014295604014578488,0
6,159,0.003038736916354267,0
6,160,0.038819525340354,0
6,161,0.03221238175913477,0
6,162,0.04775563188781094,0
6,163,0.0601560904678763,0
6,164,0.08266022918448003,0
6,165,0.12798242991632702,0
6,166,0.14615423123624213,0
6,167,0.17900379900266644,0
6,168,0.19173958118471512,0
6,169,0.18315586814975626,0
6,170,0.20117315321690932,0
6,171,0.19626852678350615,0
6,172,0.21689194437666515,0
6,173,0.2580207382850295,0
6,174,0.23901765426680638,0
6,175,0.26687864945960477,0
6,176,0.2371084277526905,0
6,177,0.2541989937479795,0
6,178,0.28522612292662225,0
6,179,0.29316322962985925,0
6,180,0.28865126490160675,0
6,181,0.35977601648969565,0
6,182,0.32534319791081473,0
6,183,0.32297452472347565,0
6,184,0.3444689671100328,0
6,185,0.3512225830425806,0
6,186,0.3634245208754243,0
6,187,0.3364416735745023,0
6,188,0.4025223491632757,0
6,189,0.41178430282730627,0
6,190,0.4221388517180007,0
6,191,0.40700640769538154,0
6,192,0.42137152141016243,0
6,193,0.39824613558979305,0
6,194,0.4393719562185368,0
6,195,0.434305037690442,0
6,196,0.4255289597881128,0
6,197,0.4556325840000234,0
6,198,0.4570342012457678,0
6,199,0.4363921053963193,0
6,200,0.4340301285970741,0
6,201,0.3867178569399897,0
6,202,0.4045462056477943,0
6,203,0.3229345283277901,0
6,204,0.27640795403523694,0
6,205,0.23046287668982338,0
6,206,0.1816126888870044,0
6,207,0.10722686413061666,0
6,208,0.011885737175326693,0
6,209,-0.036778899445284285,0
6,210,-0.13336567735817326,0
6,211,-0.1364432147637512,0
6,212,-0.12687902901018216,0
6,213,-0.04267333188253985,0
6,214,0.027683275141673267,0
6,215,0.13495190483219688,0
6,216,0.2812393220577258,0
6,217,0.46890910847057715,0
6,218,0.6012309754859055,0
6,219,0.7372479545758385,0
6,220,0.9233086814812274,0
6,221,1.011922037249126,0
6,222,1.0956989467903482,0
6,223,1.1026897572581897,0
6,224,1.0735353352932555,0
6,225,1.049658268347538,0
6,226,0.9651967278642438,0
6,227,0.8732466772051899,0
6,228,0.7969572143547545,0
6,229,0.636815178948334,0
6,230,0.564712538744202,0
6,231,0.4537590365369409,0
6,232,0.34315715871309305,0
6,233,0.3332930667332959,0
6,234,0.287911772270631,0
6,235,0.26468129634951765,0
6,236,0.22231047761131384,0
6,237,0.17836398220023414,0
6,238,0.17789784297103486,0
6,239,0.2096739820149728,0
6,240,0.15690217123658332,0
6,241,0.19589150221187035,0
6,242,0.17548680935189515,0
6,243,0.13774261481482192,0
6,244,0.11837757749835369,0
6,245,0.14206113589789107,0
6,246,0.10381410906527316,0
6,247,0.0647627092002712,0
6,248,0.09360525068735095,0
6,249,0.07713683894562115,0
6,250,0.07781633997543104,0
6,251,0.048230959619218,0
6,252,0.016390402258439733,0
6,253,0.03889707587523092,0
6,254,0.026998843221574198,0
6,255,-0.009472250370000754,0
6,256,-0.02665615482634902,0
6,257,-0.0679669909694089,0
6,258,-0.06718689075435909,0
6,259,-0.05323524465866762,0
6,260,-0.09287399498431419,0
6,261,-0.1239905892760099,0
6,262,-0.03789380340744683,0
6,263,-0.14985366538773762,0
6,264,-0.08802614186710273,0
6,265,-0.15167170127806323,0
6,266,-0.1593482460702632,0
6,267,-0.18299352045035655,0
6,268,-0.16552521248123886,0
6,269,-0.22134060077748652,0
6,270,-0.24043047533759881,0
6,271,-0.1822016630350326,0
6,272,-0.24095532744534773,0
6,273,-0.22010203368332903,0
6,274,-0.2665459019916101,0
6,275,-0.24013475645202945,0
6,276,-0.22974082313875419,0
6,277,-0.2826941373843378,0
6,278,-0.31918151931732586,0
6,279,-0.25470894842578223,0
6,280,-0.2775337956516342,0
6,281,-0.31269675608449143,0
6,282,-0.31433537875985124,0
6,283,-0.3385168130340569,0
6,284,-0.2937950698972821,0
6,285,-0.3383530747291385,0
6,286,-0.3610472404999536,0
6,287,-0.33296439067104283,0
6,288,-0.35854647037844717,0
6,289,-0.3655953237721048,0
6,290,-0.3567816164147811,0
6,291,-0.34916929756838433,0
6,292,-0.3807645105664415,0
6,293,-0.32721192887015943,0
6,294,-0.34266910044862386,0
6,295,-0.36434042921371723,0
6,296,-0.3754436717656616,0
6,297,-0.359027551616536,0
6,298,-0.33864361965229656,0
6,299,-0.34065396377253276,0
6,300,-0.33281451444685367,0
6,301,-0.3615589009237348,0
6,302,-0.407947135303253,0
6,303,-0.3215235237186044,0
6,304,-0.346392493120434,0
6,305,-0.3258362106496406,0
6,306,-0.3014330460160881,0
6,307,-0.2813402031681553,0
6,308,-0.3377943069011568,0
6,309,-0.3164535444053458,0
6,310,-0.28570338687734487,0
6,311,-0.3234132420068403,0
6,312,-0.31124578451144264,0
6,313,-0.30403723397735155,0
6,314,-0.28511735991781545,0
6,315,-0.28085294094455804,0
6,316,-0.2798472175124579,0
6,317,-0.27844379511856066,0
6,318,-0.23369467155519189,0
6,319,-0.21364061644388727,0
6,320,-0.20087747343322548,0
6,321,-0.22997079302920911,0
6,322,-0.19278803279916834,0
6,323,-0.19435786604022756,0
6,324,-0.1994416783653828,0
6,325,-0.16202345783480626,0
6,326,-0.177469213232617,0
6,327,-0.1608539734675272,0
6,328,-0.1688370114846297,0
6,329,-0.13835233919381262,0
6,330,-0.11156484526926519,0
6,331,-0.07266154601640817,0
6,332,-0.09834790218262882,0
6,333,-0.09913449679371153,0
6,334,-0.03538816746955535,0
6,335,-0.06227844775249393,0
6,336,-0.07391054796440355,0
6,337,-0.022956582624543104,0
6,338,-0.018725957408210855,0
6,339,0.047212366079274634,0
6,340,0.024177088176497524,0
6,341,0.025221970569511993,0
6,342,0.023135003902646698,0
6,343,0.0616848418126216,0
6,344,0.0976360554203297,0
6,345,0.08810569615408945,0
6,346,0.07821905155275222,0
6,347,0.11915623369697183,0
6,348,0.12051832309762908,0
6,349,0.14345474014456128,0
6,350,0.14024393319229758,0
6,351,0.1524814422057293,0
6,352,0.16423294507719427,0
6,353,0.20379288285826724,0
6,354,0.18974625619046565,0
6,355,0.19986676610607484,0
6,356,0.20194382778372358,0
6,357,0.2413477745579153,0
6,358,0.2497282068159846,0
6,359,0.24547583758530553,0
6,360,0.2509373822803257,0
6,361,0.31302560710494365,0
6,362,0.2479626908083518,0
6,363,0.3051875014081366,0
6,364,0.3305793789526988,0
6,365,0.24611325309064636,0
6,366,0.33850332415594636,0
6,367,0.32666861420831195,0
6,368,0.34434918931399017,0
6,369,0.34064867434259327,0
6,370,0.3762770493658831,0
6,371,0.3695016505539783,0
6,372,0.37219451614152516,0
6,373,0.35876182066375956,0
6,374,0.4213660864046066,0
6,375,0.39053615979241585,0
6,376,0.44205106319437737,0
6,377,0.4394526423490994,0
6,378,0.3678427779441728,0
6,379,0.3894818683195731,0
6,380,0.37614933685263213,0
6,381,0.38359204999613894,0
6,382,0.3674651210390194,0
6,383,0.33729817806045403,0
6,384,0.3114155378931546,0
6,385,0.266275235087026,0
6,386,0.19138894422888741,0
6,387,0.08881963051117626,0
6,388,0.009381180552360802,0
6,389,-0.046618990551520474,0
6,390,-0.09889239443917239,0
6,391,-0.15266618079223326,0
6,392,-0.1905788104244517,0
6,393,-0.13156365475164208,0
6,394,-0.09789152742564583,0
6,395,-0.006574561372463804,0
6,396,0.12559654542482257,0
6,397,0.2718936200420564,0
6,398,0.43369203938636214,0
6,399,0.5812311855351159,0
6,400,0.7585590616270448,0
6,401,0.9047999015678931,0
6,402,0.9923213730573974,0
6,403,1.062647752089922,0
6,404,1.0443062177428635,0
6,405,1.009272591739055,0
6,406,0.9723060318715336,0
6,407,0.8818407119085672,0
6,408,0.7846018661745118,0
6,409,0.6927458066728545,0
6,410,0.5733540399805944,0
6,411,0.4609370955040479,0
6,412,0.38919637975044175,0
6,413,0.3357027731951201,0
6,414,0.28525870734621,0
6,415,0.24128334202638294,0
6,416,0.20405252030745447,0
6,417,0.1685478677815325,0
6,418,0.16271986069913197,0
6,419,0.14063014757344508,0
6,420,0.13292703368185207,0
6,421,0.10205504301563721,0
6,422,0.11198158556268803,0
6,423,0.10849602126714004,0
6,424,0.09687182909100761,0
6,425,0.052677008767650094,0
6,426,0.0680401872225773,0
6,427,0.024347892286404722,0
6,428,0.043362724450116394,0
6,429,0.012201093726918452,0
6,430,0.04645845680665092,0
6,431,0.000710035414441043,0
6,432,0.0002529494470023576,0
6,433,0.01232384055819101,0
6,434,-0.060357095673515,0
6,435,-0.04937554519972395,0
6,436,-0.09582926646444136,0
6,437,-0.07915768585564963,0
6,438,-0.06459090341980672,0
6,439,-0.12620035349575834,0
6,440,-0.14497127577861008,0
6,441,-0.1425411259986655,0
6,442,-0.11310695056504509,0
6,443,-0.15173280551526672,0
6,444,-0.19819141339649027,0
6,445,-0.16372551846253566,0
6,446,-0.23844073005601582,0
6,447,-0.17488547130672683,0
6,448,-0.2125148588220903,0
6,449,-0.20613586642000786,0
6,450,-0.28584825053793744,0
6,451,-0.26069739556357663,0
6,452,-0.27765351639526475,0
6,453,-0.30568765304274836,0
6,454,-0.32171132228760657,0
6,455,-0.2955505095628785,0
6,456,-0.30328573375278295,0
6,457,-0.2984249440233379,0
6,458,-0.343302041670575,0
6,459,-0.34448991787894917,0
7,0,0.2611985828904764,0
7,1,0.28246490702500016,0
7,2,0.29119509388130893,0
7,3,0.31306075426184915,0
7,4,0.2749132855281266,0
7,5,0.31298592738295256,0
7,6,0.3058752965160621,0
7,7,0.35570933859509374,0
7,8,0.30405548341322874,0
7,9,0.3513136821599321,0
7,10,0.34212292025668584,0
7,11,0.3485103999322766,0
7,12,0.35141430305281784,0
7,13,0.38553410226526763,0
7,14,0.37275396199890465,0
7,15,0.3465365847123411,0
7,16,0.41158016467546915,0
7,17,0.41845300809689967,0
7,18,0.4198701795454486,0
7,19,0.3949503803564147,0
7,20,0.4051620729538028,0
7,21,0.3901653640956623,0
7,22,0.4338535144113701,0
7,23,0.38598004994265556,0
7,24,0.355747498628477,0
7,25,0.3792100336763827,0
7,26,0.3172364247258342,0
7,27,0.227006423472171,0
7,28,0.14677242126946616,0
7,29,0.0030072619078746615,0
7,30,-0.03924796175728506,0
7,31,-0.1853227721204905,0
7,32,-0.27726421435811405,0
7,33,-0.43711408864924506,0
7,34,-0.454781998163757,0
7,35,-0.5530386329173953,0
7,36,-0.6004286816155413,0
7,37,-0.5826586463652602,0
7,38,-0.5580978238072973,0
7,39,-0.46431977294970966,0
7,40,-0.40763594515668883,0
7,41,-0.2656071462444233,0
7,42,-0.16775866765159408,0
7,43,-0.03391448740648089,0
7,44,0.06712953683726613,0
7,45,0.20148432054753257,0
7,46,0.24684598317906226,0
7,47,0.3480626134318043,0
7,48,0.3946046681614259,0
7,49,0.46862743146002817,0
7,50,0.49210824325046754,0
7,51,0.46955640728414055,0
7,52,0.4402575072618109,0
7,53,0.4634401727680644,0
7,54,0.4055551224748841,0
7,55,0.45284705805862224,0
7,56,0.3916864143198023,0
7,57,0.38196407452663766,0
7,58,0.35172583417675324,0
7,59,0.33175689585032136,0
7,60,0.3507011705583525,0
7,61,0.3205061617229236,0
7,62,0.3135545178263572,0
7,63,0.2826646790708731,0
7,64,0.31063101800617077,0
7,65,0.30391738645079047,0
7,66,0.2721212020957757,0
7,67,0.293332894343642,0
7,68,0.25759615407649444,0
7,69,0.26693551324961245,0
7,70,0.21045599783099317,0
7,71,0.2414436817913511,0
7,72,0.22027936246561655,0
7,73,0.22002225878795126,0
7,74,0.21019782643676904,0
7,75,0.20144377000338445,0
7,76,0.20206795400798797,0
7,77,0.1691594138486542,0
7,78,0.18244483548147783,0
7,79,0.18621236184673967,0
7,80,0.12376283298024392,0
7,81,0.12667078822052188,0
7,82,0.11774597467307034,0
7,83,0.100837056155067,0
7,84,0.103278575238862,0
7,85,0.12346983677477338,0
7,86,0.12174165956345334,0
7,87,0.08485056677093118,0
7,88,0.06614138635869092,0
7,89,0.0785527435359116,0
7,90,0.005059415515760085,0
7,91,0.021063361210461484,0
7,92,-0.014446637755508383,0
7,93,0.0004891858309913205,0
7,94,-0.0037145148004811,0
7,95,0.031014845326486767,0
7,96,-0.06390468238609952,0
7,97,-0.027134923197169418,0
7,98,-0.016492521776234517,0
7,99,-0.03071056968102573,0
7,100,-0.019682933729533614,0
7,101,-0.05563322726661816,0
7,102,-0.06124220611674392,0
7,103,-0.11530132232275811,0
7,104,-0.10802288258293333,0
7,105,-0.13355387945386216,0
7,106,-0.09599897649153608,0
7,107,-0.10993093865550288,0
7,108,-0.11998310180683544,0
7,109,-0.15312047472860824,0
7,110,-0.16407096975946855,0
7,111,-0.14941892295067838,0
7,112,-0.1758607593753439,0
7,113,-0.19160926148118254,0
7,114,-0.18995380732844955,0
7,115,-0.20143629193358,0
7,116,-0.21383589284841922,0
7,117,-0.22913540152427284,0
7,118,-0.20359768396922737,0
7,119,-0.18922905744946864,0
7,120,-0.22873026214283998,0
7,121,-0.23091775017889365,0
7,122,-0.23186594093210747,0
7,123,-0.24229487874746428,0
7,124,-0.27339772456624833,0
7,125,-0.228691523764396,0
7,126,-0.2846545555395199,0
7,127,-0.26275279102049326,0
7,128,-0.2710987997375935,0
7,129,-0.326637070969771,0
7,130,-0.3001841779304472,0
7,131,-0.29718309309454805,0
7,132,-0.3007266234534523,0
7,133,-0.3021971306370751,0
7,134,-0.29766658649278727,0
7,135,-0.3173195357701193,0
7,136,-0.3141781870674558,0
7,137,-0.32601988369327056,0
7,138,-0.349063856766149,0
7,139,-0.3314090575165223,0
7,140,-0.32015625628422417,0
7,141,-0.315782051417826,0
7,142,-0.3297679893187178,0
7,143,-0.316118600216248,0
7,144,-0.3364527265301523,0
7,145,-0.3293084273321509,0
7,146,-0.3293244561973312,0
7,147,-0.3537546535893597,0
7,148,-0.33571109118020814,0
7,149,-0.36971496454471336,0
7,150,-0.34430354389855367,0
7,151,-0.3398834353399543,0
7,152,-0.33025245926094937,0
7,153,-0.3344358380661193,0
7,154,-0.3288718518930638,0
7,155,-0.35117169094506123,0
7,156,-0.354849313899605,0
7,157,-0.3519249819085003,0
7,158,-0.33931604032307605,0
7,159,-0.3787616687091411,0
7,160,-0.3136282502746859,0
7,161,-0.3367957626962362,0
7,162,-0.3431179992772528,0
7,163,-0.3822938320211142,0
7,164,-0.3290562104528913,0
7,165,-0.32865106893141727,0
7,166,-0.33872768672068904,0
7,167,-0.330099171315831,0
7,168,-0.3127715145079062,0
7,169,-0.31935611945616355,0
7,170,-0.2912616639540066,0
7,171,-0.31254129554813875,0
7,172,-0.28910192415263963,0
7,173,-0.2629873992208947,0
7,174,-0.2814840218804606,0
7,175,-0.2675699458576394,0
7,176,-0.2625515908923059,0
7,177,-0.2617418749964275,0
7,178,-0.2565256851958322,0
7,179,-0.2596879125641523,0
7,180,-0.23811099310297917,0
7,181,-0.23946823734440556,0
7,182,-0.1953586224696476,0
7,183,-0.20234617962009058,0
7,184,-0.23972998521516317,0
7,185,-0.23054410614370188,0
7,186,-0.1969644575277279,0
7,187,-0.19384881940462612,0
7,188,-0.18103299231554726,0
7,189,-0.15561717580466458,0
7,190,-0.1534479074738074,0
7,191,-0.14462933864373667,0
7,192,-0.11266065443916863,0
7,193,-0.1600746763260072,0
7,194,-0.12080647791135385,0
7,195,-0.12493735370064075,0
7,196,-0.07500788443778793,0
7,197,-0.13815986835021662,0
7,198,-0.12744140636820536,0
7,199,-0.0681075227281454,0
7,200,-0.04165922509864589,0
7,201,-0.03862836917101828,0
7,202,-0.05995177567255676,0
7,203,-0.003579897964187957,0
7,204,-0.0480584572159887,0
7,205,0.013048125201890026,0
7,206,-0.024717511141589564,0
7,207,0.0006330565474696667,0
7,208,0.030884050023036524,0
7,209,-0.0007770058322449855,0
7,210,0.06838820630162841,0
7,211,0.0423142588896029,0
7,212,0.06268157338919071,0
7,213,0.09363320790608375,0
7,214,0.06496276625262574,0
7,215,0.11245329084577423,0
7,216,0.13442783392137797,0
7,217,0.09884688803062115,0
7,218,0.14964147089807844,0
7,219,0.09728415318757874,0
7,220,0.1504693481764318,0
7,221,0.12821948242392414,0
7,222,0.18168236827837717,0
7,223,0.1899980799373348,0
7,224,0.2242059776157888,0
7,225,0.22085801300516528,0
7,226,0.19878862643410422,0
7,227,0.190031752988012,0
7,228,0.23242736002561615,0
7,229,0.2292235561101418,0
7,230,0.27065697152133256,0
7,231,0.2053666186878678,0
7,232,0.3013740649118566,0
7,233,0.27702351278170134,0
7,234,0.258740154541041,0
7,235,0.29813675752629504,0
7,236,0.3176959209939647,0
7,237,0.3021530713572526,0
7,238,0.2725087838798895,0
7,239,0.30969079204398103,0
7,240,0.3439321091754691,0
7,241,0.3404689494637558,0
7,242,0.3346147769630836,0
7,243,0.3709468777462908,0
7,244,0.36644583299987565,0
7,245,0.3747385106150025,0
7,246,0.35686971973659976,0
7,247,0.3615907208990091,0
7,248,0.3444712341675176,0
7,249,0.380206203629064,0
7,250,0.4113528277164845,0
7,251,0.3962846515823711,0
7,252,0.4175957835823037,0
7,253,0.43989498496434515,0
7,254,0.43474063711478367,0
7,255,0.44671212593915643,0
7,256,0.4200834014002086,0
7,257,0.4498178265760084,0
7,258,0.4976819412253307,0
7,259,0.46827208827511974,0
7,260,0.5012379873712154,0
7,261,0.43757934623599026,0
7,262,0.4345261439924585,0
7,263,0.3866442234570156,0
7,264,0.35530465119741766,0
7,265,0.29420399172688494,0
7,266,0.20507848255549452,0
7,267,0.11624985373254801,0
7,268,-0.013327540451476359,0
7,269,-0.13106986027603548,0
7,270,-0.27581337574042397,0
7,271,-0.33306938308235906,0
7,272,-0.4318054786930106,0
7,273,-0.5032791929719915,0
7,274,-0.5441177248748813,0
7,275,-0.5476572740302466,0
7,276,-0.5255586344421836,0
7,277,-0.47434112638988496,0
7,278,-0.37520567776328145,0
7,279,-0.2660638426136202,0
7,280,-0.17401947523542305,0
7,281,-0.04466113458973921,0
7,282,0.0783258242469984,0
7,283,0.19203010286012595,0
7,284,0.28427602195608265,0
7,285,0.37713859937406646,0
7,286,0.38890188187436425,0
7,287,0.43175547097455735,0
7,288,0.4874835792152287,0
7,289,0.47961747333491295,0
7,290,0.5062283698950703,0
7,291,0.5007894914646759,0
7,292,0.46580100471545083,0
7,293,0.42074203594155424,0
7,294,0.4435281237234577,0
7,295,0.4071719963643379,0
7,296,0.35550406797589335,0
7,297,0.340981212295169,0
7,298,0.384719811168405,0
7,299,0.3684126223280533,0
7,300,0.27938522473671357,0
7,301,0.29194871592988464,0
7,302,0.33205244353258034,0
7,303,0.299501266496218,0
7,304,0.3048462401452985,0
7,305,0.28065637480879635,0
7,306,0.2861087603110567,0
7,307,0.2642215000814325,0
7,308,0.24635365135740156,0
7,309,0.26716923197281134,0
7,310,0.24079759374291448,0
7,311,0.24043489743929305,0
7,312,0.2210354854998682,0
7,313,0.19853106747946675,0
7,314,0.2306752039486289,0
7,315,0.1957397139577437,0
7,316,0.1715626666502691,0
7,317,0.19415073297659816,0
7,318,0.1319923376195479,0
7,319,0.19287032404996526,0
7,320,0.1342157002529704,0
7,321,0.1020177324693495,0
7,322,0.1550085454242375,0
7,323,0.09707758669984083,0
7,324,0.10060374131464553,0
7,325,0.09944446969878572,0
7,326,0.09808703654546753,0
7,327,0.06968039142343262,0
7,328,0.03999556628852483,0
7,329,0.04656165200295749,0
7,330,0.023025673714739098,0
7,331,0.02561996607253826,0
7,332,0.04243534562110092,0
7,333,0.014235659834718648,0
7,334,-0.007485639475550929,0
7,335,-0.007557720665432987,0
7,336,-0.016800877198370905,0
7,337,-0.06519367278967993,0
7,338,-0.05338697807551976,0
7,339,-0.013500490031715988,0
7,340,-0.05096147181345026,0
7,341,-0.09568360110837953,0
7,342,-0.10799915874588445,0
7,343,-0.11890175556769929,0
7,344,-0.09899028803104525,0
7,345,-0.09421166065065056,0
7,346,-0.12466448572680965,0
7,347,-0.1429967657373543,0
7,348,-0.16473750598032227,0
7,349,-0.15885696632589227,0
7,350,-0.19130607020450635,0
7,351,-0.22294095329315688,0
7,352,-0.16066765531673666,0
7,353,-0.2225492905394523,0
7,354,-0.21780281994925996,0
7,355,-0.20689046150994547,0
7,356,-0.19987216268444793,0
7,357,-0.2317894943621396,0
7,358,-0.26899804005068656,0
7,359,-0.25915808084878533,0
7,360,-0.2745184524798503,0
7,361,-0.26933559360861326,0
7,362,-0.25135426017564844,0
7,363,-0.33395929768170657,0
7,364,-0.2984470933749771,0
7,365,-0.306693597423877,0
7,366,-0.32872216852237407,0
7,367,-0.2982281379561769,0
7,368,-0.3443609572180478,0
7,369,-0.34795124862617743,0
7,370,-0.3105884608012145,0
7,371,-0.3030157455875955,0
7,372,-0.33972373629394936,0
7,373,-0.36747827517163606,0
7,374,-0.36192070621641703,0
7,375,-0.3320765467236557,0
7,376,-0.35407961809479566,0
7,377,-0.362343116137579,0
7,378,-0.35771496914401896,0
7,379,-0.3681201364258301,0
7,380,-0.3395788871262182,0
7,381,-0.38833546993906365,0
7,382,-0.3932227755518162,0
7,383,-0.40593359755643976,0
7,384,-0.3911137762301198,0
7,385,-0.4039303980751084,0
7,386,-0.37923260891800303,0
7,387,-0.3844039554081238,0
7,388,-0.4073581286711482,0
7,389,-0.3746720509183151,0
7,390,-0.3565210670519083,0
7,391,-0.3798272663575421,0
7,392,-0.4377050767446714,0
7,393,-0.34666828470863137,0
7,394,-0.3707734695585536,0
7,395,-0.34561057662679306,0
7,396,-0.36167835593578684,0
7,397,-0.35616439423514734,0
7,398,-0.37608052414717297,0
7,399,-0.3833737103735266,0
7,400,-0.3683325351771556,0
7,401,-0.38738652857668243,0
7,402,-0.361678221028844,0
7,403,-0.41977514491545304,0
7,404,-0.3630053370928397,0
7,405,-0.3333385927489803,0
7,406,-0.354460416809654,0
7,407,-0.31766069290427446,0
7,408,-0.3531014214270401,0
7,409,-0.3231453613792028,0
7,410,-0.355894810519436,0
7,411,-0.31398410078808237,0
7,412,-0.32323175043349145,0
7,413,-0.3267096243926918,0
7,414,-0.36799789213031275,0
7,415,-0.31559236615134223,0
7,416,-0.3000037264563263,0
7,417,-0.28125451056346834,0
7,418,-0.2599583004175564,0
7,419,-0.24362279705736645,0
7,420,-0.25234683026291793,0
7,421,-0.2812704322789806,0
7,422,-0.2686941639172658,0
7,423,-0.24020765202057637,0
7,424,-0.23680551614329456,0
7,425,-0.20667235875627632,0
7,426,-0.18152837353870824,0
7,427,-0.17749075050320884,0
7,428,-0.18452109896185695,0
7,429,-0.19526074831025464,0
7,430,-0.17011088376870814,0
7,431,-0.15501310709575397,0
7,432,-0.1822048426177451,0
7,433,-0.1808078214239388,0
7,434,-0.17628422846150968,0
7,435,-0.16913680753903515,0
7,436,-0.1698211552960116,0
7,437,-0.12766098603907194,0
7,438,-0.14304435231060614,0
7,439,-0.12902945066653163,0
7,440,-0.0895700268715424,0
7,441,-0.09013254485941796,0
7,442,-0.07528235526088516,0
7,443,-0.04662967025998009,0
7,444,-0.04665466216185421,0
7,445,-0.0235421579250147,0
7,446,-0.04226422032206071,0
7,447,-0.001548268593272957,0
7,448,-0.016493398955686914,0
7,449,-0.010209051470811982,0
7,450,0.025754045501528572,0
7,451,-0.010818385248652246,0
7,452,0.05718506821138135,0
7,453,0.021139368604436604,0
7,454,0.012460221836401775,0
7,455,0.05989890868877171,0
7,456,0.04924720449007801,0
7,457,0.10722564835895636,0
7,458,0.06791133345423615,0
7,459,0.09265504722479552,0
7,460,0.06758074612682272,0
7,461,0.12200026361370564,0
7,462,0.09975941873510519,0
7,463,0.13864794256640633,0
7,464,0.12559093514486402,0
7,465,0.10249094450840254,0
7,466,0.1552139634003824,0
7,467,0.16336137638978107,0
7,468,0.18817248188340327,0
7,469,0.2104584722229889,0
7,470,0.22623688327032526,0
7,471,0.21377859165831564,0
7,472,0.2104251362834284,0
7,473,0.18450771802300595,0
7,474,0.22513490691935983,0
7,475,0.23326603285486497,0
7,476,0.23269410766715512,0
7,477,0.2568495540106995,0
7,478,0.2739719022844258,0
7,479,0.2423282444570272,0
7,480,0.24900055220903458,0
7,481,0.26970762041565316,0
7,482,0.26684758669718245,0
7,483,0.25285932303850384,0
7,484,0.2722023268547287,0
7,485,0.27391961294854344,0
7,486,0.32923734648326874,0
7,487,0.3458108924493914,0
7,488,0.2968496560557015,0
7,489,0.3371451115074583,0
7,490,0.35175005296967055,0
7,491,0.31315919210958004,0
8,0,0.2733505584624842,0
8,1,0.26310712616594745,0
8,2,0.2648332554547245,0
8,3,0.2434293794213917,0
8,4,0.30095074799581034,0
8,5,0.33799053112109534,0
8,6,0.2901045955542845,0
8,7,0.2748841036779399,0
8,8,0.3074582833660846,0
8,9,0.3455171501242188,0
8,10,0.3265460845756762,0
8,11,0.32614391618989447,0
8,12,0.3507169868330252,0
8,13,0.363194800751889,0
8,14,0.33970912516199203,0
8,15,0.3726792175360242,0
8,16,0.37724474102277744,0
8,17,0.38491088446930355,0
8,18,0.3877866924733627,0
8,19,0.4363450100472616,0
8,20,0.4117366415822687,0
8,21,0.3878153160841188,0
8,22,0.42993287338728253,0
8,23,0.42747501635960666,0
8,24,0.37420219518140274,0
8,25,0.3425169974947025,0
8,26,0.2888917590280098,0
8,27,0.22673678954018733,0
8,28,0.17159035657840652,0
8,29,0.04887296260010638,0
8,30,-0.04079098922512536,0
8,31,-0.19084477546165188,0
8,32,-0.2915438400123965,0
8,33,-0.3682625670964692,0
8,34,-0.4904454667755131,0
8,35,-0.5177390083115102,0
8,36,-0.5854755181596569,0
8,37,-0.5822998639766612,0
8,38,-0.5127666677016092,0
8,39,-0.4945215047512316,0
8,40,-0.3963211266544436,0
8,41,-0.28053075832625596,0
8,42,-0.16983134697393532,0
8,43,-0.04670077817293686,0
8,44,0.06604207102218917,0
8,45,0.14999835672040845,0
8,46,0.27688424958671093,0
8,47,0.3311407551416847,0
8,48,0.41804872909811774,0
8,49,0.46813609034887566,0
8,50,0.42601640992893874,0
8,51,0.49702413864794026,0
8,52,0.45786657344638615,0
8,53,0.4522792419885416,0
8,54,0.4205995681253117,0
8,55,0.42409355666428555,0
8,56,0.40248611339607115,0
8,57,0.4041139343008446,0
8,58,0.3505169901602832,0
8,59,0.3830085756230959,0
8,60,0.3492496259535892,0
8,61,0.32549787479945824,0
8,62,0.30908917976998385,0
8,63,0.2966111117125729,0
8,64,0.28868295804809985,0
8,65,0.28812963088676263,0
8,66,0.27211977261949266,0
8,67,0.2551638625468545,0
8,68,0.2631678230577189,0
8,69,0.23461464094932832,0
8,70,0.24936388746763005,0
8,71,0.22991372375200803,0
8,72,0.23964361000239212,0
8,73,0.23669329448276089,0
8,74,0.2277577895305473,0
8,75,0.2052918746808973,0
8,76,0.1984505638360738,0
8,77,0.1740078659584051,0
8,78,0.18461604406043192,0
8,79,0.177371891397616,0
8,80,0.12061907000935981,0
8,81,0.14984853409725366,0
8,82,0.15987927933727142,0
8,83,0.1155521662519905,0
8,84,0.10128159110892558,0
8,85,0.09441019724505019,0
8,86,0.06269240121662224,0
8,87,0.08524674646497934,0
8,88,0.07322541537759997,0
8,89,0.06643480081184441,0
8,90,0.06065831782515973,0
8,91,0.02620706260889512,0
8,92,0.037449954358930795,0
8,93,0.030667153376414756,0
8,94,0.0018580011212182609,0
8,95,0.00986356773277266,0
8,96,-0.0070693105352448975,0
8,97,-0.03142466658135035,0
8,98,-0.02322807729012313,0
8,99,-0.044739397813471984,0
8,100,-0.03497639091994375,0
8,101,-0.06363758443993069,0
8,102,-0.09452308136166802,0
8,103,-0.0731914459761541,0
8,104,-0.08366944046276845,0
8,105,-0.11952252684085492,0
8,106,-0.09244041634111194,0
8,107,-0.10294033096793821,0
8,108,-0.14365346500200393,0
8,109,-0.14868432858064498,0
8,110,-0.1474521264337258,0
8,111,-0.16878490421735948,0
8,112,-0.14966509462168767,0
8,113,-0.1682217312179936,0
8,114,-0.2016571628210529,0
8,115,-0.20467086946985963,0
8,116,-0.17274704981252215,0
8,117,-0.1739087976308125,0
8,118,-0.20179689981495533,0
8,119,-0.22457555134201607,0
8,120,-0.23674943637859844,0
8,121,-0.22437244455207211,0
8,122,-0.2410750872989518,0
8,123,-0.28182762283961427,0
8,124,-0.23582211834921216,0
8,125,-0.23617238263919033,0
8,126,-0.25476329460709674,0
8,127,-0.2975467822062656,0
8,128,-0.29443915487891853,0
8,129,-0.3246226373542325,0
8,130,-0.2610862797642777,0
8,131,-0.30545043339597205,0
8,132,-0.2567238612489424,0
8,133,-0.2691209403292549,0
8,134,-0.33088837227896567,0
8,135,-0.331334583272764,0
8,136,-0.3119467315808723,0
8,137,-0.36021163403514833,0
8,138,-0.33748236597862474,0
8,139,-0.3428202663680503,0
8,140,-0.2981147343303514,0
8,141,-0.3347374613572442,0
8,142,-0.3462096420203458,0
8,143,-0.35543530138894,0
8,144,-0.326949029531836,0
8,145,-0.35652024024413576,0
8,146,-0.34907793867017695,0
8,147,-0.3620701132211243,0
8,148,-0.3805819024718694,0
8,149,-0.37082276914594836,0
8,150,-0.3613392248968248,0
8,151,-0.35668904847859595,0
8,152,-0.3556628401934061,0
8,153,-0.35262941815612064,0
8,154,-0.3599278881627782,0
8,155,-0.32220155737916467,0
8,156,-0.3289817684090644,0
8,157,-0.34912919209460475,0
8,158,-0.33955654933722873,0
8,159,-0.3500284932253552,0
8,160,-0.3971330955236125,0
8,161,-0.33726336963429515,0
8,162,-0.32870568040552606,0
8,163,-0.36395274296980956,0
8,164,-0.3183317189454336,0
8,165,-0.3302930721887984,0
8,166,-0.3140280836950907,0
8,167,-0.3216462073606925,0
8,168,-0.28721969213446596,0
8,169,-0.30306681385272816,0
8,170,-0.2826508961041336,0
8,171,-0.27587110093175954,0
8,172,-0.3145852072648234,0
8,173,-0.30136864399754104,0
8,174,-0.27171989097468446,0
8,175,-0.2820002340119977,0
8,176,-0.2731767540254438,0
8,177,-0.23617051654536061,0
8,178,-0.2613928699208034,0
8,179,-0.2676390151001257,0
8,180,-0.2578072389468475,0
8,181,-0.1901557571437622,0
8,182,-0.2298448154420465,0
8,183,-0.24585399990664702,0
8,184,-0.24606323920372813,0
8,185,-0.2150936790328226,0
8,186,-0.19828570253548827,0
8,187,-0.16695923572727775,0
8,188,-0.1603222106218734,0
8,189,-0.16876733343916756,0
8,190,-0.16884599717454635,0
8,191,-0.14394988618446597,0
8,192,-0.17655946927180427,0
8,193,-0.09267522736396128,0
8,194,-0.10980314267719961,0
8,195,-0.09601649834713022,0
8,196,-0.12519966779210717,0
8,197,-0.06831986340781782,0
8,198,-0.09333211787447124,0
8,199,-0.09325141111147768,0
8,200,-0.06496860369725323,0
8,201,-0.05534455731712676,0
8,202,-0.06550290125644252,0
8,203,-0.05160707947504686,0
8,204,-0.042893717750665535,0
8,205,-0.03237585994611336,0
8,206,-0.0104949042764187,0
8,207,-0.020110162729235055,0
8,208,0.0042711693176194585,0
8,209,0.0494498417533637,0
8,210,0.055473927392896735,0
8,211,0.02847555069977409,0
8,212,0.0791001490215096,0
8,213,0.031060406742547716,0
8,214,0.12940815959621182,0
8,215,0.11724328096337829,0
8,216,0.09042252426072846,0
8,217,0.11960699921191494,0
8,218,0.09423533088396999,0
8,219,0.13370458087092707,0
8,220,0.1390040796304911,0
8,221,0.1360961849501524,0
8,222,0.1534598475811362,0
8,223,0.1614492094527022,0
8,224,0.1600236433176112,0
8,225,0.17526940842818203,0
8,226,0.17326716186613908,0
8,227,0.2288133180452012,0
8,228,0.20247136350310296,0
8,229,0.2059977668864486,0
8,230,0.2564639642257384,0
8,231,0.25608664264297,0
8,232,0.27370295084506324,0
8,233,0.28470536511339833,0
8,234,0.3137494949142169,0
8,235,0.28033617764406005,0
8,236,0.2625953389882605,0
8,237,0.30528688954642136,0
8,238,0.29442709910519005,0
8,239,0.29641762710461234,0
8,240,0.3251427115589712,0
8,241,0.34785070943940005,0
8,242,0.32102502074786543,0
8,243,0.3702683228750965,0
8,244,0.3318674370031734,0
8,245,0.35353366306972633,0
8,246,0.37280857121183314,0
8,247,0.3639804103602499,0
8,248,0.34295038180240733,0
8,249,0.4039421885835852,0
8,250,0.3801756998334014,0
8,251,0.4152644865105567,0
8,252,0.38340212395117035,0
8,253,0.3958022661893513,0
8,254,0.44453264546991816,0
8,255,0.44411199255878087,0
8,256,0.4384681364272662,0
8,257,0.4633697542214647,0
8,258,0.44406862838451167,0
8,259,0.46840132700297604,0
8,260,0.4658743021990852,0
8,261,0.44456602674494866,0
8,262,0.41314148083795255,0
8,263,0.3957027637723488,0
8,264,0.34236533462890867,0
8,265,0.26698737678729034,0
8,266,0.17235287123786153,0
8,267,0.09566235184429678,0
8,268,-0.022330527977761937,0
8,269,-0.1479524453315006,0
8,270,-0.23977891937974233,0
8,271,-0.31367229234454264,0
8,272,-0.4425857138559553,0
8,273,-0.47196536739590034,0
8,274,-0.4980147424711925,0
8,275,-0.5659880608509242,0
8,276,-0.520653027648246,0
8,277,-0.4217058112622927,0
8,278,-0.38241905460594566,0
8,279,-0.27501078207697127,0
8,280,-0.19200822643519727,0
8,281,-0.04727966121238474,0
8,282,0.0935300329656745,0
8,283,0.24051948957161526,0
8,284,0.2829195946783642,0
8,285,0.3306916489359115,0
8,286,0.3938442383729743,0
8,287,0.46054042122259375,0
8,288,0.5071563271912022,0
8,289,0.5044182639489766,0
8,290,0.4977486410497966,0
8,291,0.5035763601512568,0
8,292,0.4467214794366136,0
8,293,0.44256342866618914,0
8,294,0.4120286109948686,0
8,295,0.3977648284122899,0
8,296,0.365117400339926,0
8,297,0.3620720838277967,0
8,298,0.3538265640493241,0
8,299,0.3339604740655977,0
8,300,0.32650685751836245,0
8,301,0.32720534470378587,0
8,302,0.33400924900143525,0
8,303,0.32609423562633094,0
8,304,0.30603768978339646,0
8,305,0.25669580016199195,0
8,306,0.26581071079823554,0
8,307,0.2586191285338718,0
8,308,0.2419628198767696,0
8,309,0.2528413789551073,0
8,310,0.2048699315567724,0
8,311,0.2612584525049875,0
8,312,0.24179094043108715,0
8,313,0.2178222505884982,0
8,314,0.19726523112308136,0
8,315,0.21321713476404147,0
8,316,0.19245173827331746,0
8,317,0.19071689925458568,0
8,318,0.15722777145193023,0
8,319,0.1839309127513289,0
8,320,0.1611364529200361,0
8,321,0.13756874252573567,0
8,322,0.14200917686370929,0
8,323,0.09795770012461721,0
8,324,0.07238884273059246,0
8,325,0.09152166513094596,0
8,326,0.07326177707599525,0
8,327,0.059730553303448744,0
8,328,0.07726811524211363,0
8,329,0.04552458580049025,0
8,330,0.03668336609208321,0
8,331,0.014098681370165865,0
8,332,0.027494817491554274,0
8,333,0.013154671628001161,0
8,334,0.005854625300368163,0
8,335,-0.032272816650283365,0
9,0,0.2290325106498265,0
9,1,0.27987037434384343,0
9,2,0.2746800694130995,0
9,3,0.2916160561654788,0
9,4,0.29336592965355807,0
9,5,0.3175186054623511,0
9,6,0.31195036298235673,0
9,7,0.30250187330940453,0
9,8,0.33341208668610195,0
9,9,0.33540763342370117,0
9,10,0.3459568187816029,0
9,11,0.29178792613779014,0
9,12,0.3771396432991325,0
9,13,0.36514165054723463,0
9,14,0.35230425827938083,0
9,15,0.4051508772268807,0
9,16,0.40594076925669403,0
9,17,0.39144095591367767,0
9,18,0.37679991034294824,0
9,19,0.4007909140117504,0
9,20,0.3907304356845498,0
9,21,0.3893607666591413,0
9,22,0.3341080908345848,0
9,23,0.3267630243307034,0
9,24,0.23870869041580878,0
9,25,0.15614852413832825,0
9,26,0.08252377384816124,0
9,27,0.017996664118797374,0
9,28,-0.07078637101727797,0
9,29,-0.1476134370057984,0
9,30,-0.22875363026574766,0
9,31,-0.2600868622796359,0
9,32,-0.3099916943335972,0
9,33,-0.336567874142011,0
9,34,-0.25464159539351544,0
9,35,-0.21194733325126097,0
9,36,-0.05388992090041314,0
9,37,0.0991549000163959,0
9,38,0.21055995016540477,0
9,39,0.41444150627441445,0
9,40,0.5505681349077904,0
9,41,0.6867880382916829,0
9,42,0.768406284811327,0
9,43,0.8144744482205185,0
9,44,0.8855513073583164,0
9,45,0.860325948126912,0
9,46,0.8494448819692568,0
9,47,0.7953310171971399,0
9,48,0.7573060599186621,0
9,49,0.6768915245339162,0
9,50,0.5858961263662948,0
9,51,0.47654907726840484,0
9,52,0.4374113678954215,0
9,53,0.40729308713444995,0
9,54,0.35121548853647244,0
9,55,0.27696493931752325,0
9,56,0.2403077426855615,0
9,57,0.25634565471930537,0
9,58,0.21235087651421408,0
9,59,0.1989508604741574,0
9,60,0.21867533490907984,0
9,61,0.2177301227833397,0
9,62,0.16782768093589187,0
9,63,0.17132017355095278,0
9,64,0.16003291673460404,0
9,65,0.1473150406371913,0
9,66,0.14021414635520552,0
9,67,0.1430562595390014,0
9,68,0.10272173902138976,0
9,69,0.073759110642137,0
9,70,0.12596191475377744,0
9,71,0.10171826726515298,0
9,72,0.04552915545358026,0
9,73,0.05791803382014408,0
9,74,0.0629771475375307,0
9,75,0.04527530045903515,0
9,76,0.02705658264910152,0
9,77,0.0019396492829197197,0
9,78,0.027438534495321912,0
9,79,-0.01510785940082353,0
9,80,-0.04219397876156364,0
9,81,-0.026782009000477766,0
9,82,-0.05451690252039141,0
9,83,-0.061589453503830174,0
9,84,-0.07656960085879665,0
9,85,-0.08263126658712486,0
9,86,-0.1239444039080978,0
9,87,-0.14506763773634754,0
9,88,-0.09888238444552074,0
9,89,-0.1339298995666694,0
9,90,-0.1346861161816282,0
9,91,-0.19629271578613383,0
9,92,-0.15055961343067714,0
9,93,-0.19290849157462278,0
9,94,-0.20896710863020032,0
9,95,-0.2042415757956166,0
9,96,-0.23242166504970468,0
9,97,-0.2225306602102085,0
9,98,-0.23459247741367983,0
9,99,-0.2197531740015699,0
9,100,-0.21950554690044036,0
9,101,-0.22865999228233047,0
9,102,-0.3117958756243995,0
9,103,-0.29311276427415706,0
9,104,-0.32749111126237973,0
9,105,-0.31312011410106894,0
9,106,-0.3091596606454163,0
9,107,-0.2945347693558203,0
9,108,-0.31937095036196106,0
9,109,-0.3246828177721329,0
9,110,-0.31671174147729414,0
9,111,-0.3596693565542975,0
9,112,-0.3470160729615649,0
9,113,-0.3446961066765823,0
9,114,-0.34266869412192524,0
9,115,-0.34068777126219413,0
9,116,-0.31542657637705346,0
9,117,-0.3300885137303572,0
9,118,-0.3660568803516531,0
9,119,-0.35790973501751394,0
9,120,-0.36087911586490823,0
9,121,-0.3657733661233158,0
9,122,-0.35083130913669536,0
9,123,-0.39385880489452674,0
9,124,-0.33902017213031915,0
9,125,-0.3223241566346517,0
9,126,-0.3607424002438048,0
9,127,-0.35987366631163575,0
9,128,-0.3492777479895195,0
9,129,-0.3299561578586099,0
9,130,-0.35434993380664076,0
9,131,-0.32630264775752993,0
9,132,-0.3319292519092539,0
9,133,-0.2907878248696598,0
9,134,-0.34052114298177,0
9,135,-0.3690067387443213,0
9,136,-0.35329976217477177,0
9,137,-0.31917693494078664,0
9,138,-0.2932578921781004,0
9,139,-0.3208969021082081,0
9,140,-0.30613372693147345,0
9,141,-0.28113015757343623,0
9,142,-0.3070939500230445,0
9,143,-0.29263446467213444,0
9,144,-0.2960483825505893,0
9,145,-0.24108690384828338,0
9,146,-0.22545666532780154,0
9,147,-0.2792066445834006,0
9,148,-0.24148869920410138,0
9,149,-0.201234045390625,0
9,150,-0.21185662483705694,0
9,151,-0.21979345827906852,0
9,152,-0.23084696282623854,0
9,153,-0.16652711434667955,0
9,154,-0.17179582606857008,0
9,155,-0.19765467949545157,0
9,156,-0.13336574794691275,0
9,157,-0.1779313846064806,0
9,158,-0.13889545886923566,0
9,159,-0.1281548891847109,0
9,160,-0.07869821925850415,0
9,161,-0.10432854944146844,0
9,162,-0.0922930963871708,0
9,163,-0.10201772992351929,0
9,164,-0.07519595111606453,0
9,165,-0.06625439795333904,0
9,166,-0.05263494495560236,0
9,167,-0.0245412998333878,0
9,168,-0.060614552245482,0
9,169,-0.029340340874366228,0
9,170,0.011485297771121287,0
9,171,0.029005051997655754,0
9,172,0.034805169701498016,0
9,173,0.051558076770568194,0
9,174,0.05708472882803135,0
9,175,0.07776970193743019,0
9,176,0.09966171287558277,0
9,177,0.11231369458575922,0
9,178,0.10272386200098867,0
9,179,0.1474636353616954,0
9,180,0.14487623989185788,0
9,181,0.1788512877537624,0
9,182,0.195225119819835,0
9,183,0.14994873608468356,0
9,184,0.17372059996215367,0
9,185,0.21911975734810638,0
9,186,0.18133599773625148,0
9,187,0.25464764334519807,0
9,188,0.2307899101557425,0
9,189,0.26039303192928764,0
9,190,0.2575791214231835,0
9,191,0.24285204886245917,0
9,192,0.3023708002923423,0
9,193,0.34659066402218197,0
9,194,0.2913378724143808,0
9,195,0.30498827486452945,0
9,196,0.26797995019196086,0
9,197,0.35724014812080324,0
9,198,0.35741189246577626,0
9,199,0.3131951600493036,0
9,200,0.31497938778947665,0
9,201,0.32545233870700707,0
9,202,0.38527522075028103,0
9,203,0.3950242969517933,0
9,204,0.3692834853586926,0
9,205,0.40529674310299674,0
9,206,0.406043624653935,0
9,207,0.4030980288747411,0
9,208,0.43741360159536535,0
9,209,0.40131855426835766,0
9,210,0.4552926066269014,0
9,211,0.4236407537783513,0
9,212,0.4777684926115064,0
9,213,0.4227645105756717,0
9,214,0.43175758022525135,0
9,215,0.42913231814582287,0
9,216,0.4093315461381946,0
9,217,0.38755230806180435,0
9,218,0.3089776542711789,0
9,219,0.2775897053577094,0
9,220,0.21183569266164273,0
9,221,0.11832841437032748,0
9,222,0.04962329703516839,0
9,223,-0.07430857020529005,0
9,224,-0.1373344689543409,0
9,225,-0.21577793810533208,0
9,226,-0.25546371033392645,0
9,227,-0.23950495042511183,0
9,228,-0.2244789065594034,0
9,229,-0.1772530777728486,0
9,230,-0.12525524793417994,0
9,231,0.019712029172219585,0
9,232,0.14446000611261087,0
9,233,0.29657494787140726,0
9,234,0.44878089568327156,0
9,235,0.6298331103396543,0
9,236,0.7457986114258494,0
9,237,0.8289254754846922,0
9,238,0.8732919113828186,0
9,239,0.9060747202858144,0
9,240,0.9123656234356384,0
9,241,0.860228219187871,0
9,242,0.8370467156761703,0
9,243,0.7332498312502753,0
9,244,0.685631492105049,0
9,245,0.5569702441516824,0
9,246,0.5203957543552794,0
9,247,0.5085886251613057,0
9,248,0.4321866803294551,0
9,249,0.39592418765672005,0
9,250,0.314477874934126,0
9,251,0.3002480178696281,0
9,252,0.3004499564797183,0
9,253,0.2688762597435995,0
9,254,0.2511470552962851,0
9,255,0.26051765381560793,0
9,256,0.195272771626531,0
9,257,0.20115576990179845,0
9,258,0.15866399103835804,0
9,259,0.16063766229212983,0
9,260,0.19257794345208737,0
9,261,0.14101861426285414,0
9,262,0.16207120165867256,0
9,263,0.1682815442928133,0
9,264,0.11910180405702887,0
9,265,0.1204458720898873,0
9,266,0.11217965050521712,0
9,267,0.06005691058241108,0
9,268,0.059266241969516235,0
9,269,0.038587712669324994,0
9,270,0.03496815294998061,0
9,271,0.047059171938375874,0
9,272,0.007875226806063455,0
9,273,0.006140472376716688,0
9,274,-0.026905361589022053,0
9,275,0.005622083540870217,0
9,276,-0.04259606673816392,0
9,277,-0.013945883185142446,0
9,278,-0.05580961116462533,0
9,279,-0.09768901073082381,0
9,280,-0.08537567390435036,0
9,281,-0.11548937671476556,0
9,282,-0.094585556898796,0
9,283,-0.12358607631862432,0
9,284,-0.12691619293617093,0
9,285,-0.1492122412577493,0
9,286,-0.1643880983808611,0
9,287,-0.18400934507087957,0
9,288,-0.1588561759031828,0
9,289,-0.18986422421779472,0
9,290,-0.203281260446126,0
9,291,-0.21129295480195,0
9,292,-0.23099155903607776,0
9,293,-0.23346113644308175,0
9,294,-0.23266543990726737,0
9,295,-0.2667191423658852,0
9,296,-0.2727868399342356,0
9,297,-0.23609345005512325,0
9,298,-0.2792607497670049,0
9,299,-0.29106202658051844,0
9,300,-0.3146040230864218,0
9,301,-0.2780716380790909,0
9,302,-0.32321770912268316,0
9,303,-0.3090673937508482,0
9,304,-0.34922924665801797,0
9,305,-0.3046414373357832,0
9,306,-0.3030365275622781,0
9,307,-0.32207587090113743,0
9,308,-0.36726722069253415,0
9,309,-0.3242276775841686,0
9,310,-0.36158481586659463,0
9,311,-0.37209786085484553,0
9,312,-0.3595903747763571,0
9,313,-0.36283026811539393,0
9,314,-0.36730198477478615,0
9,315,-0.33375968818423757,0
9,316,-0.320621031078406,0
9,317,-0.3894554543976463,0
9,318,-0.37665434484669297,0
9,319,-0.3604169387043867,0
9,320,-0.37102954252856746,0
9,321,-0.3548399367929281,0
9,322,-0.34367101745744477,0
9,323,-0.345757482416671,0
9,324,-0.3468970476386267,0
9,325,-0.3238515698633823,0
9,326,-0.3863514565292738,0
9,327,-0.32210948138065587,0
9,328,-0.3567140161955423,0
9,329,-0.32910126384216876,0
9,330,-0.3613578249881186,0
9,331,-0.3545108030334044,0
9,332,-0.3182954434379626,0
9,333,-0.3649351361878932,0
9,334,-0.3010259569982971,0
9,335,-0.28970737663589274,0
9,336,-0.3050868305528789,0
9,337,-0.29919404012827294,0
9,338,-0.3117467534317392,0
9,339,-0.27429539017592175,0
9,340,-0.27321488992781,0
9,341,-0.2906638205004991,0
9,342,-0.27181909517346575,0
9,343,-0.25863114259851655,0
9,344,-0.2544637732171394,0
9,345,-0.2647471177368155,0
9,346,-0.21411731116935634,0
9,347,-0.22331450942642087,0
9,348,-0.20823170447155467,0
9,349,-0.20995777316278644,0
9,350,-0.17851007247848075,0
9,351,-0.17344537631382131,0
9,352,-0.14235949557120464,0
9,353,-0.14600274316762032,0
9,354,-0.14848336122130537,0
9,355,-0.14786635123473393,0
9,356,-0.10423483393177073,0
9,357,-0.11553912659462102,0
9,358,-0.10151998584851393,0
9,359,-0.08960002039315913,0
9,360,-0.08215736026979152,0
9,361,-0.06508312390477884,0
9,362,-0.011250809596541005,0
9,363,-0.05844254538427357,0
9,364,-0.04142898180610283,0
9,365,0.014939962628504645,0
9,366,-0.007818309500919201,0
9,367,0.0031083211425599402,0
9,368,0.04526636949312528,0
9,369,0.00860560801562793,0
9,370,0.06585783222454224,0
9,371,0.06272582465760265,0
9,372,0.0834465890454732,0
9,373,0.09534733126664005,0
9,374,0.086069221398092,0
9,375,0.13176766086532188,0
9,376,0.11175633993612163,0
9,377,0.14283832897875817,0
9,378,0.17119250358184082,0
9,379,0.18565451910520425,0
9,380,0.16422177366360607,0
9,381,0.1901518591817456,0
9,382,0.1848491320026686,0
9,383,0.25307753140949274,0
9,384,0.22936800899301074,0
9,385,0.22600016667376135,0
9,386,0.24090203984428624,0
9,387,0.25289188466993007,0
9,388,0.26333994250097703,0
9,389,0.25940610462894953,0
9,390,0.2656569033929436,0
9,391,0.2795735312798441,0
9,392,0.26860692108741574,0
9,393,0.3142768987248478,0
9,394,0.29211104652215075,0
9,395,0.2949128575964177,0
9,396,0.32354419745441443,0
9,397,0.32873292695402484,0
9,398,0.3436622130118204,0
9,399,0.3345269607031473,0
9,400,0.34521205332305704,0
9,401,0.3740816529080657,0
9,402,0.3800650128205428,0
9,403,0.3864059860191066,0
9,404,0.3822663944591784,0
9,405,0.3913667965414489,0
9,406,0.39779955064782896,0
9,407,0.3831179336993505,0
9,408,0.4252891370902226,0
9,409,0.41684239962718544,0
9,410,0.3933517387625281,0
9,411,0.34695171287611204,0
9,412,0.33302322505836557,0
9,413,0.295851681264606,0
9,414,0.1925266061286485,0
9,415,0.17893508612580125,0
9,416,0.027978477484934303,0
9,417,-0.01161981838288132,0
9,418,-0.08542909060659583,0
9,419,-0.19852566777694142,0
9,420,-0.26592245878490295,0
9,421,-0.2930704599017357,0
9,422,-0.28285565540424146,0
9,423,-0.30417544154441795,0
9,424,-0.2562375191881178,0
9,425,-0.15626648937379228,0
9,426,-0.05638271500621846,0
9,427,0.1363240929500758,0
9,428,0.2623938631184923,0
9,429,0.421738568649009,0
9,430,0.5848727365428698,0
9,431,0.6776709597970724,0
9,432,0.7894933254823331,0
9,433,0.8092785266733693,0
9,434,0.8710101818162662,0
9,435,0.8490657608609924,0
9,436,0.8044031776143145,0
9,437,0.7528003495754836,0
9,438,0.6556206293931576,0
9,439,0.6086944205353306,0
9,440,0.5287847963560646,0
9,441,0.4359560174199613,0
9,442,0.38470323058057004,0
9,443,0.3415189676144005,0
9,444,0.28724084692341584,0
9,445,0.21511050432376572,0
9,446,0.25632367757531305,0
10,0,0.25696582363353826,0
10,1,0.22252426644148193,0
10,2,0.26455988391578156,0
10,3,0.3011267196612116,0
10,4,0.3202185810993896,0
10,5,0.3040395398771878,0
10,6,0.3082145821305986,0
10,7,0.35535444446822534,0
10,8,0.35566211408701537,0
10,9,0.3654144795936298,0
10,10,0.3471285748162053,0
10,11,0.3867536269513019,0
10,12,0.33324721854888983,0
10,13,0.4019541049795256,0
10,14,0.38436580535337295,0
10,15,0.3932823478422606,0
10,16,0.3746262273932709,0
10,17,0.35677422777613815,0
10,18,0.39001460532328286,0
10,19,0.3873597657457488,0
10,20,0.37087879639444815,0
10,21,0.3398386515919224,0
10,22,0.29626137632633553,0
10,23,0.2214459321472988,0
10,24,0.19801037195750845,0
10,25,0.09975975835446063,0
10,26,0.08065710007769694,0
10,27,0.0018848809745608463,0
10,28,-0.03753707121006959,0
10,29,-0.036339010695228505,0
10,30,-0.020597791318452612,0
10,31,0.023108762883929348,0
10,32,0.07683852931225599,0
10,33,0.22923748510727682,0
10,34,0.34730886407107253,0
10,35,0.5476595342834182,0
10,36,0.6772387822996214,0
10,37,0.8686954990878873,0
10,38,0.9957774848275066,0
10,39,1.1359997541470945,0
10,40,1.2037388674858127,0
10,41,1.2009528679756567,0
10,42,1.1696999627780549,0
10,43,1.1093478002656818,0
10,44,1.0150843728662988,0
10,45,0.8703460740738892,0
10,46,0.7275731604366962,0
10,47,0.6200517782303548,0
10,48,0.4495707670264094,0
10,49,0.40056000434484296,0
10,50,0.2828515365571056,0
10,51,0.2265368574202341,0
10,52,0.20205696748915927,0
10,53,0.14309311253247517,0
10,54,0.14379281594718402,0
10,55,0.14126359079869563,0
10,56,0.11330731766332694,0
10,57,0.11232970261827656,0
10,58,0.09917815156331776,0
10,59,0.09859472323953833,0
10,60,0.06726952131876898,0
10,61,0.07541438008373136,0
10,62,0.045654368817134326,0
10,63,0.0422296117056307,0
10,64,0.007872229095353768,0
10,65,0.04015888861685106,0
10,66,0.05513280405181793,0
10,67,-0.001729930650822496,0
10,68,0.01260761366091347,0
10,69,0.0016607571876164975,0
10,70,-0.05898965529143583,0
10,71,-0.0687806162326156,0
10,72,-0.04329411594192548,0
10,73,-0.078842504922724,0
10,74,-0.11655522944526829,0
10,75,-0.11705913249522013,0
10,76,-0.10933166782255342,0
10,77,-0.14680918250435504,0
10,78,-0.1994117855343544,0
10,79,-0.16311941908489797,0
10,80,-0.17400725718170873,0
10,81,-0.18124405738147809,0
10,82,-0.16820816104965783,0
10,83,-0.20397208833100033,0
10,84,-0.2115237862437845,0
10,85,-0.2062792700816852,0
10,86,-0.23784275105673142,0
10,87,-0.20561611259869716,0
10,88,-0.2835404855703776,0
10,89,-0.2864780977091664,0
10,90,-0.26464049927580474,0
10,91,-0.260540841180232,0
10,92,-0.29792116569923144,0
10,93,-0.3219549273346816,0
10,94,-0.27390801072007687,0
10,95,-0.3318981316908221,0
10,96,-0.315720492082067,0
10,97,-0.3021881150648261,0
10,98,-0.34278309205156293,0
10,99,-0.3513758377780909,0
10,100,-0.3544846559925929,0
10,101,-0.32934638048414105,0
10,102,-0.32962409493270906,0
10,103,-0.35308028295652216,0
10,104,-0.3184946568274603,0
10,105,-0.35738863968402973,0
10,106,-0.33352024445109324,0
10,107,-0.3688109849741545,0
10,108,-0.31376353942645596,0
10,109,-0.32876673015271896,0
10,110,-0.3619225410878069,0
10,111,-0.32932969834093656,0
10,112,-0.32846360499275035,0
10,113,-0.3226725869427927,0
10,114,-0.400433759624794,0
10,115,-0.3329417308537537,0
10,116,-0.33249600285854014,0
10,117,-0.3294173228407702,0
10,118,-0.3294580665847289,0
10,119,-0.32335087436725624,0
10,120,-0.2966294855524916,0
10,121,-0.30499896996661235,0
10,122,-0.3044659428439471,0
10,123,-0.2785607643631967,0
10,124,-0.2850706861466207,0
10,125,-0.27479164172716825,0
10,126,-0.23891412329400544,0
10,127,-0.2757080693917266,0
10,128,-0.2876802507453908,0
10,129,-0.24586319465892037,0
10,130,-0.23257423463242657,0
10,131,-0.21161328965419027,0
10,132,-0.2127148827578902,0
10,133,-0.18822963325291725,0
10,134,-0.14137938593856839,0
10,135,-0.16326586994017295,0
10,136,-0.1472753049185302,0
10,137,-0.15665540339766465,0
10,138,-0.1687478695370762,0
10,139,-0.17373514220752634,0
10,140,-0.1246467168675299,0
10,141,-0.1521688426423775,0
10,142,-0.07638523145119118,0
10,143,-0.08023250691687107,0
10,144,-0.08460766819627995,0
10,145,-0.0413498511181052,0
10,146,-0.04424959888867191,0
10,147,-0.0058729731048931585,0
10,148,0.013930964229549012,0
10,149,0.00046745986033209196,0
10,150,0.024523202195532036,0
10,151,0.048350552045134915,0
10,152,0.030694854209882314,0
10,153,0.07789428037817107,0
10,154,0.05969970254944869,0
10,155,0.11429607068749419,0
10,156,0.10886009778510536,0
10,157,0.10331452031938532,0
10,158,0.1348087826171278,0
10,159,0.1498791882451006,0
10,160,0.19606992317530034,0
10,161,0.19205589087026487,0
10,162,0.1831593066007233,0
10,163,0.24874757138306142,0
10,164,0.24154562492010503,0
10,165,0.23528928394120832,0
10,166,0.2236718026919197,0
10,167,0.258705067537129,0
10,168,0.27493406748168797,0
10,169,0.29855494838195235,0
10,170,0.31481605997181006,0
10,171,0.3299521839902897,0
10,172,0.2923824267077778,0
10,173,0.339204154699968,0
10,174,0.3418893131078893,0
10,175,0.4083139022650952,0
10,176,0.36535341663688736,0
10,177,0.3605602152106917,0
10,178,0.38384806567121876,0
10,179,0.3898016105798559,0
10,180,0.35825883618418614,0
10,181,0.4140188084559494,0
10,182,0.40716968317751523,0
10,183,0.4199767147623497,0
10,184,0.40952414990419095,0
10,185,0.4105190944541473,0
10,186,0.45360419735095225,0
10,187,0.45906753018107394,0
10,188,0.4420868337265891,0
10,189,0.3887496031030973,0
10,190,0.4186221405116621,0
10,191,0.3482429623421656,0
10,192,0.33623061734663345,0
10,193,0.32186559983241375,0
10,194,0.2635735260273861,0
10,195,0.19874852052259107,0
10,196,0.15272044671834445,0
10,197,0.07826582933626804,0
10,198,-0.021509324516938433,0
10,199,-0.017402497802137446,0
10,200,-0.012656836474538769,0
10,201,0.016481572363126674,0
10,202,0.07559717313782927,0
10,203,0.1722565084619634,0
10,204,0.3780607739490677,0
10,205,0.48320686975162297,0
10,206,0.7107372353257027,0
10,207,0.8112697370545171,0
10,208,1.0007087417664,0
10,209,1.1154984942417885,0
10,210,1.1754964891972217,0
10,211,1.221401456783531,0
10,212,1.2200094989455372,0
10,213,1.149419804911576,0
10,214,1.0712354995605438,0
10,215,0.9134922541778541,0
10,216,0.8452959405535067,0
10,217,0.7228575703333304,0
10,218,0.5811735702185993,0
10,219,0.5047978542208762,0
10,220,0.37858354999360466,0
10,221,0.3128687756580825,0
10,222,0.2588434659218041,0
10,223,0.13980158829484324,0
10,224,0.17744515485459228,0
10,225,0.12526314414100545,0
10,226,0.11963143288706862,0
10,227,0.11690891227760873,0
10,228,0.12583917566175623,0
10,229,0.13987296741615404,0
10,230,0.12914493294571258,0
10,231,0.11224743015048594,0
10,232,0.11736862071942422,0
10,233,0.10754370087483937,0
10,234,0.08849216215661207,0
10,235,0.03201075100906066,0
10,236,0.03793788178164866,0
10,237,0.03905989944347517,0
10,238,0.03876857755247658,0
10,239,-0.0170224374264975,0
10,240,-0.005255913649524519,0
10,241,-0.05088621628424732,0
10,242,-0.013524044913282223,0
10,243,-0.043557230225505665,0
10,244,-0.08955770099921279,0
10,245,-0.10376894587248996,0
10,246,-0.08287501154044807,0
10,247,-0.07684884232781229,0
10,248,-0.13979589917861238,0
10,249,-0.11542006505411263,0
10,250,-0.15504799812162634,0
10,251,-0.1405322896364519,0
10,252,-0.15585005239833724,0
10,253,-0.17863358684110736,0
10,254,-0.2303447362476346,0
10,255,-0.1916261340253999,0
10,256,-0.206462437319993,0
10,257,-0.2191921295315979,0
10,258,-0.23401544160719054,0
10,259,-0.2656490301001315,0
10,260,-0.23616097675995767,0
10,261,-0.2491938904212561,0
10,262,-0.2975786093436953,0
10,263,-0.2582628204608558,0
10,264,-0.28994767259227877,0
10,265,-0.29757372208294264,0
10,266,-0.3107919366660768,0
10,267,-0.3154565831574358,0
10,268,-0.29262533151929837,0
10,269,-0.30503499135643625,0
10,270,-0.3106118354743741,0
10,271,-0.3318021049949076,0
10,272,-0.32184081277004256,0
10,273,-0.3599222170006411,0
10,274,-0.3346549786989235,0
10,275,-0.35195369245430846,0
10,276,-0.39210909254632725,0
10,277,-0.38413053574148126,0
10,278,-0.36662824617840706,0
10,279,-0.3454893571404864,0
10,280,-0.3669210690385323,0
10,281,-0.36485251900313376,0
10,282,-0.336580487514099,0
10,283,-0.36122814719237173,0
10,284,-0.32126323013245395,0
10,285,-0.32180096000689784,0
10,286,-0.3413664958815982,0
10,287,-0.3229169605638747,0
10,288,-0.3213102874668704,0
10,289,-0.33373030877237647,0
10,290,-0.3062460683902967,0
10,291,-0.2974698651318429,0
10,292,-0.3303813484231783,0
10,293,-0.30147086949337254,0
10,294,-0.2944349421103775,0
10,295,-0.2725799364414517,0
10,296,-0.2902917063322456,0
10,297,-0.28477824883824365,0
10,298,-0.26042981634762274,0
10,299,-0.23076020803240482,0
10,300,-0.26855644318912875,0
10,301,-0.2548641086160936,0
10,302,-0.23420891792129953,0
10,303,-0.21972762135959142,0
10,304,-0.23692658164854763,0
10,305,-0.16006707322005675,0
10,306,-0.18074643529763487,0
10,307,-0.17156147258089563,0
10,308,-0.12105234410931555,0
10,309,-0.12643882603708662,0
10,310,-0.1385542276617461,0
10,311,-0.11138415202089968,0
10,312,-0.10213922889370433,0
10,313,-0.058781816352595315,0
10,314,-0.0773765984933319,0
10,315,-0.08900251065283779,0
10,316,-0.08371212340517643,0
10,317,-0.0025632185333671446,0
10,318,-0.033649541689846026,0
10,319,0.009784547716594103,0
10,320,0.012121777394438345,0
10,321,0.016688437725970492,0
10,322,0.034168597429899424,0
10,323,0.08536624567179603,0
10,324,0.03903984647180977,0
10,325,0.07452391624129225,0
10,326,0.11456598102451765,0
10,327,0.08486350317169149,0
10,328,0.1508543628456487,0
10,329,0.1562071897813007,0
10,330,0.15750357569331394,0
10,331,0.15554295933191536,0
10,332,0.15072739447667777,0
10,333,0.20624790641857138,0
10,334,0.2600055504551224,0
10,335,0.22063559972248212,0
10,336,0.19362373844694647,0
10,337,0.2514463896041689,0
10,338,0.27136033507671053,0
10,339,0.24734812795048614,0
10,340,0.2640200241099288,0
10,341,0.272867338867782,0
10,342,0.28772088292602127,0
10,343,0.30507444359143776,0
10,344,0.3010977852306425,0
10,345,0.303022821756688,0
10,346,0.3402802446677512,0
10,347,0.3418340651262447,0
10,348,0.3451196145238924,0
10,349,0.3635570289070767,0
10,350,0.3392618475173641,0
10,351,0.3824474591129923,0
10,352,0.3761259718921941,0
10,353,0.3961536060445945,0
10,354,0.40576972033536435,0
10,355,0.4259580780779174,0
10,356,0.40952923694495685,0
10,357,0.4306696171831833,0
10,358,0.40133975575170533,0
10,359,0.3958781578905663,0
10,360,0.3866398704757729,0
10,361,0.3829165479671561,0
10,362,0.349550405543499,0
10,363,0.29893869795108724,0
10,364,0.2211422109750181,0
10,365,0.19936419271284778,0
10,366,0.10674778074997181,0
10,367,0.04331702053551838,0
10,368,-0.01579084095279359,0
10,369,-0.0337361469300612,0
10,370,-0.02322771761620868,0
10,371,-0.05142385342927015,0
10,372,0.052415543265401404,0
10,373,0.1252161130966704,0
10,374,0.2006907826100164,0
10,375,0.3733972711626636,0
10,376,0.5289014750209071,0
10,377,0.7359126975619743,0
10,378,0.8654109103916285,0
10,379,0.9909036852545735,0
10,380,1.1188133378498681,0
10,381,1.2066073097073722,0
10,382,1.189869189266212,0
10,383,1.166394356316326,0
10,384,1.0920569093731647,0
10,385,0.9474081903359883,0
10,386,0.8345960627136656,0
10,387,0.7196885899869931,0
10,388,0.5778325298410286,0
10,389,0.5032382529143855,0
10,390,0.3411303740601482,0
10,391,0.26327378975390325,0
10,392,0.22256893249010742,0
11,0,0.23783521263177532,0
11,1,0.3000859035436,0
11,2,0.28086951249244235,0
11,3,0.29861827910281785,0
11,4,0.329509198626807,0
11,5,0.29438195104063014,0
11,6,0.33672605605938744,0
11,7,0.32241803649602074,0
11,8,0.3405982940006421,0
11,9,0.35335884544785284,0
11,10,0.33023002482877983,0
11,11,0.3525923050372138,0
11,12,0.4026266543342579,0
11,13,0.4000322587603931,0
11,14,0.38661401364789005,0
11,15,0.3964995565564666,0
11,16,0.38682205239741635,0
11,17,0.41702496128722,0
11,18,0.3777946807929155,0
11,19,0.3716048372158712,0
11,20,0.3670172400288444,0
11,21,0.29684513505848015,0
11,22,0.3031330204848819,0
11,23,0.19358260025613705,0
11,24,0.2047156522426175,0
11,25,0.11309582422870065,0
11,26,0.07106138952200797,0
11,27,0.008038407637044671,0
11,28,0.029188177380254265,0
11,29,0.039649010872799116,0
11,30,0.10532316402628049,0
11,31,0.2085399877144125,0
11,32,0.3587937192190557,0
11,33,0.49992517842066575,0
11,34,0.674873877319658,0
11,35,0.8224058064516963,0
11,36,0.9892206407274087,0
11,37,1.1769679621759428,0
11,38,1.2192823663359365,0
11,39,1.3103488560956036,0
11,40,1.2625843118107198,0
11,41,1.2070655449909509,0
11,42,1.1248236880451852,0
11,43,0.9933857934705167,0
11,44,0.8118321911866403,0
11,45,0.6476378310070343,0
11,46,0.5031279282086363,0
11,47,0.376849632186729,0
11,48,0.2768435406172649,0
11,49,0.17365657063661621,0
11,50,0.1255404838469175,0
11,51,0.10758306993469527,0
11,52,0.061716106313098804,0
11,53,0.05220865300476545,0
11,54,0.015266792740988015,0
11,55,-0.0036405177520654614,0
11,56,0.060587659809074434,0
11,57,0.053186206763230374,0
11,58,0.04430822250033918,0
11,59,0.055845346246478474,0
11,60,0.043099835558766245,0
11,61,0.05757828455602884,0
11,62,0.02539263334666419,0
11,63,-0.004127168041784304,0
11,64,0.016744152056530598,0
11,65,-0.021885699764554723,0
11,66,-0.021813846220694908,0
11,67,-0.056805955992207335,0
11,68,-0.07514364320554376,0
11,69,-0.07524405203236825,0
11,70,-0.09128952579414074,0
11,71,-0.09637335531638683,0
11,72,-0.12554862815267942,0
11,73,-0.17087214262117417,0
11,74,-0.15651585243032107,0
11,75,-0.1454283412475409,0
11,76,-0.18040765608639378,0
11,77,-0.1922359802802058,0
11,78,-0.1801030804355508,0
11,79,-0.2262478150327859,0
11,80,-0.2546790929273681,0
11,81,-0.23846910834681156,0
11,82,-0.2559745077542857,0
11,83,-0.2762344369993359,0
11,84,-0.2706029593809698,0
11,85,-0.2670026597335794,0
11,86,-0.28629221223960627,0
11,87,-0.2887622616139103,0
11,88,-0.26693716067175366,0
11,89,-0.317861278025872,0
11,90,-0.31271780301109536,0
11,91,-0.33522132849310954,0
11,92,-0.34817707874531145,0
11,93,-0.3486115462768266,0
11,94,-0.35159374362848256,0
11,95,-0.33936773961770644,0
11,96,-0.30354062412350574,0
11,97,-0.3682276637145422,0
11,98,-0.36503818016570266,0
11,99,-0.3601765820083626,0
11,100,-0.3526124044806062,0
11,101,-0.3562745847429661,0
11,102,-0.336281921017447,0
11,103,-0.4103098989144621,0
11,104,-0.40873874183938114,0
11,105,-0.36953645629056486,0
11,106,-0.335694006499556,0
11,107,-0.38637907454412573,0
11,108,-0.4120533737302434,0
11,109,-0.3367246848012117,0
11,110,-0.33894092481797183,0
11,111,-0.3607084873471812,0
11,112,-0.3531368942450357,0
11,113,-0.34678223794134416,0
11,114,-0.31858619563015533,0
11,115,-0.3261906621473037,0
11,116,-0.2961189138815304,0
11,117,-0.3549082167520821,0
11,118,-0.3062599349615857,0
11,119,-0.3024557557547558,0
11,120,-0.27539143045242764,0
11,121,-0.2708880049991678,0
11,122,-0.2335801435373059,0
11,123,-0.2756969938342499,0
11,124,-0.22615333767726517,0
11,125,-0.2040460577698794,0
11,126,-0.16584382272611903,0
11,127,-0.20000868676436984,0
11,128,-0.17093220710955667,0
11,129,-0.2002174004998902,0
11,130,-0.198388628411534,0
11,131,-0.11977428424761305,0
11,132,-0.12263290847696488,0
11,133,-0.08455620932129289,0
11,134,-0.12097365588072734,0
11,135,-0.0682829554183027,0
11,136,-0.026298509936803376,0
11,137,-0.04011557383965946,0
11,138,-0.027676553047422576,0
11,139,-0.017622174176299632,0
11,140,-0.03370576626392723,0
11,141,0.04039549778423453,0
11,142,0.01668272089847883,0
11,143,0.054625602919670155,0
11,144,0.028908081932376227,0
11,145,0.05218570917033356,0
11,146,0.12003266375174557,0
11,147,0.0998674093549569,0
11,148,0.15126478501666962,0
11,149,0.13590066164817866,0
11,150,0.11575057373471219,0
11,151,0.1853876794956017,0
11,152,0.17051835960696857,0
11,153,0.21084975843123727,0
11,154,0.21170800604982462,0
11,155,0.1944157418050239,0
11,156,0.242363692075899,0
11,157,0.2965065972566634,0
11,158,0.2756305672939124,0
11,159,0.27747374674831715,0
11,160,0.312629492543788,0
11,161,0.30746100895472406,0
11,162,0.31917436078882255,0
11,163,0.3044840055197572,0
11,164,0.34191093752817525,0
11,165,0.3684377925195197,0
11,166,0.3410788892359595,0
11,167,0.3959436640700933,0
11,168,0.3748697356065525,0
11,169,0.3678155628302354,0
11,170,0.41402908600820254,0
11,171,0.3964948764460545,0
11,172,0.425202738591336,0
11,173,0.41150082604589605,0
11,174,0.4228114793985556,0
11,175,0.4395450546406327,0
11,176,0.439580375074444,0
11,177,0.3955310978596142,0
11,178,0.4111795496281617,0
11,179,0.44549504250740846,0
11,180,0.4112421142336668,0
11,181,0.3826890491976566,0
11,182,0.3365927248395756,0
11,183,0.30389027750080977,0
11,184,0.23887514826583056,0
11,185,0.225746528295621,0
11,186,0.16318316969235167,0
11,187,0.10811766027591374,0
11,188,0.0906490091338986,0
11,189,0.08408605038565241,0
11,190,0.13124377966388728,0
